SampleData
0.0,13455.675,32533.271,1962.2412,-30352.49,-1872.0609,-5940.3438,-18938.82,642.5292,-13379.747,-8772.929,-3969.9238,-14756.35,-3732.9075,-12595.52,-9921.083,-8468.455,-14688.035,-7869.98,-14518.994,-10636.224,-11437.071,-13144.133,-8987.919,-12882.47,-8668.866,-10401.134,-9513.268,-8005.3203,-9982.911,-7377.618,-9617.448,-8494.819,-9146.002,-10162.951,-9422.292,-11299.804,-10457.618,-11573.458,-11541.898,-11331.83,-11915.709,-10925.525,-11329.631,-10481.853,-10216.728,-9932.321,-9220.81,-9364.109,-8777.733,-8981.976,-8938.761,-9064.261,-9524.28,-9631.232,-10236.283,-10456.1455,-10854.636,-11135.523,-11202.885,-11390.741,-11209.099,-11129.759,-10835.473,-10518.58,-10228.719,-9821.154,-9589.833,-9306.09,-9185.676,-9137.846,-9162.8125,-9346.997,-9534.476,-9846.373,-10143.916,-10446.395,-10722.204,-10908.956,-11064.217,-11093.536,-11047.363,-10909.475,-10703.038,-10463.58,-10183.017,-9924.462,-9684.535,-9506.044,-9387.991,-9343.51,-9396.547,-9513.664,-9697.611,-9911.711,-10150.604,-10388.732,-10588.383,-10750.3,-10844.642,-10877.03,-10842.061,-10734.085,-10573.325,-10381.911,-10181.239,-9975.383,-9798.108,-9659.884,-9570.915,-9551.509,-9585.281,-9680.353,-9817.537,-9979.799,-10168.89,-10342.6,-10489.523,-10607.8545,-10681.958,-10707.846,-10673.118,-10586.67,-10469.362,-10330.082,-10175.703,-10023.372,-9898.3,-9802.386,-9740.067,-9725.911,-9754.08,-9821.778,-9919.766,-10038.123,-10170.428,-10294.566,-10405.247,-10486.8955,-10530.313,-10547.601,-10523.242,-10467.519,-10390.338,-10287.323,-10180.308,-10074.992,-9989.79,-9931.4795,-9886.95,-9871.202,-9888.064,-9935.133,-10003.1455,-10085.41,-10175.96,-10255.551,-10327.358,-10380.298,-10406.67,-10414.385,-10396.71,-10362.017,-10310.623,-10247.7295,-10180.498,-10110.225,-10057.3955,-10018.481,-9997.412,-9999.832,-10011.082,-10042.088,-10090.077,-10138.802,-10187.982,-10240.275,-10285.505,-10313.669,-10331.726,-10331.646,-10317.301,-10290.3545,-10241.182,-10207.456,-10180.784,-10134.644,-10114.079,-10107.172,-10091.654,-10092.909,-10101.552,-10121.706,-10147.918,-10169.523,-10199.553,-10218.25,-10223.852,-10229.255,-10235.538,-10243.587,-10240.301,-10224.163,-10206.808,-10193.257,-10174.655,-10163.118,-10170.147,-10170.323,-10163.695,-10164.527,-10175.907,-10192.661,-10201.389,-10206.653,-10209.253,-10209.463,-10208.538,-10202.4795,-10198.494,-10202.588,-10216.128,-10211.969,-10194.151,-10201.404,-10202.109,-10198.435,-10217.12,-10227.589,-10234.401,-10236.69,-10238.214,-10245.665,-10234.815,-10225.931,-10214.247,-10189.696,-10171.697,-10154.562,-10141.913,-10136.008,-10134.087,-10131.215,-10138.683,-10161.72,-10180.436,-10200.093,-10221.089,-10244.199,-10261.984,-10265.998,-10272.46,-10267.042,-10249.441,-10233.823,-10208.868,-10183.069,-10155.473,-10120.045,-10104.571,-10105.457,-10102.565,-10109.659,-10131.005,-10164.167,-10195.325,-10217.543,-10250.851,-10279.012,-10291.977,-10299.91,-10296.552,-10286.089,-10264.056,-10236.346,-10212.2705,-10180.944,-10143.504,-10109.913,-10093.78,-10089.151,-10090.257,-10102.083,-10119.1875,-10148.616,-10184.536,-10224.042,-10266.548,-10297.446,-10319.131,-10325.415,-10320.334,-10309.468,-10287.719,-10256.828,-10214.878,-10176.122,-10136.447,-10104.4375,-10092.877,-10082.065,-10086.221,-10099.662,-10117.585,-10153.6045,-10188.935,-10224.876,-10262.266,-10298.237,-10323.162,-10324.315,-10321.161,-10312.563,-10285.821,-10250.295,-10214.478,-10172.209,-10128.796,-10100.729,-10082.887,-10073.566,-10073.314,-10085.3545,-10114.648,-10146.564,-10182.115,-10221.6875,-10261.297,-10299.552,-10314.74,-10317.1455,-10315.985,-10300.284,-10281.659,-10248.862,-10207.165,-10170.688,-10125.669,-10091.89,-10074.853,-10067.4,-10072.414,-10080.37,-10107.825,-10145.57,-10178.236,-10219.777,-10258.694,-10292.263,-10313.129,-10316.44,-10314.878,-10298.955,-10272.9,-10240.398,-10203.072,-10168.23,-10127.817,-10096.114,-10081.134,-10077.662,-10083.155,-10085.588,-10104.649,-10144.813,-10181.463,-10219.443,-10254.868,-10283.742,-10304.715,-10305.693,-10304.099,-10296.218,-10268.122,-10239.649,-10213.613,-10181.978,-10138.876,-10099.822,-10086.967,-10088.12,-10092.874,-10100.603,-10121.518,-10153.6875,-10181.991,-10212.273,-10245.257,-10273.752,-10289.359,-10295.069,-10291.201,-10278.219,-10262.489,-10229.931,-10196.642,-10169.671,-10138.221,-10116.772,-10100.519,-10097.977,-10103.886,-10108.122,-10132.02,-10159.379,-10184.341,-10212.143,-10235.488,-10261.504,-10277.873,-10284.375,-10286.127,-10273.859,-10252.628,-10225.699,-10194.825,-10165.329,-10141.842,-10119.853,-10104.427,-10105.064,-10108.124,-10116.699,-10136.539,-10157.607,-10179.64,-10202.468,-10228.28,-10250.073,-10260.315,-10266.728,-10265.482,-10255.481,-10241.889,-10222.261,-10199.767,-10173.985,-10148.595,-10128.904,-10112.2705,-10106.056,-10109.031,-10118.2,-10136.289,-10158.675,-10181.031,-10197.434,-10219.004,-10239.84,-10246.97,-10256.338,-10257.435,-10251.243,-10242.607,-10220.037,-10203.254,-10186.518,-10162.793,-10145.495,-10134.265,-10135.446,-10137.308,-10140.194,-10155.958,-10171.982,-10190.556,-10208.902,-10225.113,-10241.713,-10247.676,-10249.503,-10249.064,-10245.414,-10237.073,-10220.611,-10203.316,-10184.3545,-10170.962,-10158.392,-10145.1455,-10144.728,-10147.327,-10152.32,-10161.359,-10176.904,-10194.542,-10202.253,-10219.081,-10236.95,-10239.026,-10237.813,-10235.441,-10232.729,-10223.678,-10208.828,-10196.1875,-10183.392,-10169.731,-10154.03,-10144.886,-10144.765,-10149.852,-10160.716,-10166.629,-10172.34,-10184.711,-10194.805,-10207.053,-10217.819,-10220.03,-10221.651,-10225.372,-10229.212,-10222.1875,-10210.662,-10204.22,-10191.265,-10180.694,-10170.6455,-10160.512,-10161.457,-10162.0,-10167.218,-10175.789,-10184.602,-10199.485,-10208.63,-10217.652,-10225.14,-10225.666,-10222.219,-10213.559,-10211.343,-10202.797,-10186.679,-10178.799,-10170.695,-10163.559,-10153.253,-10146.472,-10146.704,-10142.967,-10145.124,-10149.323,-10155.016,-10161.292,-10168.154,-10182.146,-10187.609,-10188.892,-10188.26,-10190.214,-10203.378,-10202.437,-10189.899,-10182.57,-10180.632,-10175.94,-10167.568,-10170.534,-10171.715,-10167.035,-10165.597,-10168.99,-10178.716,-10179.224,-10182.776,-10194.345,-10198.49,-10202.974,-10202.745,-10200.077,-10198.584,-10196.27,-10199.051,-10198.509,-10199.79,-10192.478,-10173.649,-10175.927,-10181.3,-10176.509,-10177.211,-10176.818,-10179.838,-10180.582,-10178.802,-10187.597,-10197.204,-10201.951,-10198.481,-10197.505,-10202.313,-10198.579,-10198.598,-10200.357,-10201.402,-10202.591,-10196.018,-10196.731,-10199.458,-10200.797,-10197.952,-10188.475,-10193.844,-10193.831,-10186.11,-10189.594,-10191.005,-10193.55,-10194.5,-10197.147,-10201.981,-10197.525,-10199.842,-10205.223,-10208.969,-10209.677,-10198.745,-10192.704,-10190.889,-10186.363,-10181.407,-10180.694,-10186.768,-10189.689,-10189.614,-10189.837,-10193.476,-10191.246,-10186.354,-10190.695,-10188.766,-10186.196,-10186.289,-10186.808,-10195.232,-10196.723,-10192.928,-10197.125,-10206.555,-10206.75,-10200.223,-10205.644,-10204.889,-10192.964,-10188.332,-10188.41,-10193.58,-10191.464,-10181.164,-10179.475,-10182.274,-10189.185,-10193.015,-10188.369,-10183.826,-10177.972,-10175.71,-10181.415,-10187.484,-10188.173,-10185.562,-10185.697,-10186.962,-10186.384,-10184.386,-10182.949,-10186.573,-10187.924,-10181.854,-10178.9795,-10183.067,-10186.926,-10185.076,-10185.294,-10188.618,-10188.676,-10188.704,-10187.839,-10191.861,-10194.283,-10194.987,-10204.279,-10200.396,-10194.98,-10197.923,-10197.63,-10208.102,-10208.541,-10200.348,-10204.849,-10205.075,-10202.132,-10199.013,-10201.202,-10202.959,-10192.7295,-10195.71,-10202.176,-10200.228,-10202.979,-10199.393,-10200.507,-10206.637,-10202.906,-10199.67,-10199.568,-10200.935,-10199.009,-10198.291,-10201.238,-10201.483,-10202.506,-10203.755,-10213.796,-10219.842,-10214.144,-10214.018,-10211.689,-10216.517,-10222.511,-10218.333,-10221.321,-10217.501,-10211.381,-10208.43,-10200.115,-10198.93,-10193.63,-10187.023,-10192.45,-10198.513,-10197.443,-10194.876,-10196.928,-10198.346,-10203.695,-10204.822,-10200.105,-10205.819,-10205.085,-10202.309,-10208.273,-10207.205,-10203.566,-10195.99,-10190.739,-10198.912,-10199.34,-10191.662,-10190.489,-10195.397,-10206.733,-10210.362,-10205.862,-10206.426,-10202.891,-10197.352,-10194.796,-10192.765,-10193.889,-10191.198,-10187.695,-10187.773,-10186.895,-10187.443,-10185.539,-10182.2705,-10186.598,-10190.079,-10188.8545,-10193.416,-10196.932,-10194.173,-10193.574,-10196.585,-10199.988,-10200.499,-10208.36,-10224.548,-10231.206,-10228.936,-10222.156,-10216.729,-10211.148,-10192.79,-10184.912,-10188.977,-10177.486,-10169.175,-10171.726,-10171.822,-10171.32,-10168.832,-10169.334,-10172.434,-10172.652,-10171.629,-10172.686,-10177.169,-10176.7295,-10172.575,-10172.307,-10173.294,-10172.227,-10172.589,-10175.798,-10179.365,-10186.909,-10186.436,-10178.059,-10179.038,-10179.964,-10183.221,-10185.623,-10183.742,-10187.275,-10179.6455,-10177.319,-10184.294,-10181.553,-10184.313,-10181.274,-10176.978,-10179.967,-10172.734,-10173.088,-10180.813,-10181.776,-10180.149,-10178.193,-10186.329,-10189.297,-10183.165,-10184.376,-10179.46,-10178.297,-10184.424,-10184.801,-10187.269,-10191.973,-10198.185,-10195.697,-10192.657,-10197.941,-10205.552,-10225.013,-10238.725,-10242.333,-10246.588,-10261.967,-10284.062,-10276.866,-10273.87,-10281.451,-10262.582,-10244.694,-10227.215,-10220.433,-10243.977,-10263.566,-10260.701,-10236.953,-10203.288,-10171.912,-10160.9795,-10172.918,-10176.217,-10173.3125,-10178.944,-10169.67,-10145.612,-10140.679,-10144.838,-10133.125,-10125.891,-10142.64,-10153.122,-10155.829,-10182.494,-10192.463,-10177.699,-10178.865,-10191.271,-10202.605,-10195.516,-10192.197,-10210.672,-10209.58,-10203.811,-10230.841,-10253.801,-10260.718,-10265.147,-10247.695,-10247.141,-10245.309,-10196.584,-10167.876,-10142.728,-10115.604,-10115.705,-10091.537,-10084.916,-10098.732,-10083.443,-10069.862,-10062.346,-10063.027,-10068.048,-10070.855,-10076.306,-10078.347,-10075.879,-10066.922,-10078.38,-10105.025,-10120.582,-10123.827,-10119.111,-10127.788,-10130.663,-10125.326,-10121.646,-10111.949,-10116.321,-10107.216,-10097.626,-10103.081,-10094.4795,-10109.466,-10109.942,-10078.926,-10076.894,-10083.11,-10112.144,-10154.592,-10181.358,-10220.877,-10215.381,-10176.354,-10167.708,-10138.868,-10093.799,-10059.886,-10042.41,-10038.499,-10018.123,-10002.436,-9986.476,-9982.868,-10001.477,-9990.531,-9970.58,-9951.677,-9934.548,-9921.149,-9895.577,-9880.03,-9870.771,-9888.648,-9917.27,-9929.302,-9950.836,-9950.78,-9945.439,-9943.73,-9934.968,-9941.078,-9924.622,-9901.404,-9885.404,-9864.166,-9864.209,-9872.335,-9875.161,-9867.976,-9870.978,-9881.098,-9873.804,-9879.207,-9881.055,-9876.207,-9876.739,-9860.993,-9852.737,-9847.075,-9843.27,-9853.045,-9845.375,-9840.625,-9848.48,-9838.312,-9834.602,-9858.865,-9883.013,-9886.905,-9882.465,-9873.78,-9864.32,-9864.719,-9843.483,-9815.903,-9832.077,-9850.989,-9851.291,-9849.994,-9841.597,-9844.668,-9840.427,-9813.343,-9804.509,-9789.218,-9761.709,-9770.942,-9787.038,-9787.386,-9795.65,-9835.33,-9861.686,-9838.158,-9814.938,-9768.48,-9730.283,-9709.037,-9667.76,-9675.222,-9674.551,-9674.745,-9702.228,-9693.14,-9688.304,-9660.844,-9632.346,-9622.0625,-9603.249,-9604.281,-9580.742,-9561.38,-9561.808,-9564.396,-9587.727,-9601.066,-9616.219,-9624.419,-9632.148,-9648.762,-9654.274,-9671.263,-9675.994,-9672.108,-9672.955,-9669.384,-9663.171,-9633.923,-9605.945,-9585.381,-9564.798,-9544.328,-9521.513,-9513.468,-9507.68,-9514.881,-9525.382,-9538.941,-9555.834,-9546.242,-9570.266,-9610.122,-9660.211,-9762.598,-9786.802,-9715.972,-9655.011,-9601.559,-9564.091,-9545.772,-9544.966,-9600.027,-9640.718,-9631.428,-9655.743,-9678.976,-9674.557,-9652.572,-9604.834,-9619.065,-9669.412,-9646.784,-9601.498,-9594.175,-9582.33,-9595.625,-9655.004,-9680.184,-9655.976,-9592.972,-9548.002,-9508.137,-9426.641,-9412.783,-9430.161,-9384.957,-9324.096,-9309.208,-9299.77,-9262.67,-9264.951,-9240.851,-9214.046,-9219.968,-9207.803,-9238.937,-9243.461,-9232.883,-9235.377,-9201.263,-9192.284,-9195.146,-9226.982,-9289.518,-9348.438,-9392.996,-9414.754,-9426.615,-9382.279,-9336.437,-9314.431,-9293.855,-9267.949,-9154.004,-9086.646,-9099.338,-9031.534,-9006.069,-9058.303,-9081.996,-9116.453,-9113.836,-9098.024,-9146.235,-9149.027,-9119.735,-9124.256,-9121.3125,-9131.807,-9189.8,-9278.033,-9351.7295,-9371.555,-9294.913,-9157.819,-9031.952,-8934.215,-8865.3545,-8781.173,-8744.992,-8794.84,-8863.491,-8913.491,-8883.161,-8840.927,-8800.888,-8733.175,-8688.462,-8629.959,-8596.9375,-8555.976,-8517.565,-8531.555,-8499.088,-8496.317,-8503.587,-8507.086,-8553.393,-8527.561,-8507.458,-8513.542,-8502.003,-8495.435,-8459.3125,-8422.8955,-8375.732,-8317.543,-8232.584,-8184.754,-8236.863,-8240.814,-8230.798,-8241.9375,-8212.635,-8193.13,-8147.9243,-8122.744,-8137.895,-8104.714,-8086.455,-8097.408,-8090.0107
-8083.9004,-8067.959,-8024.803,-7991.2485,-7973.378,-7960.002,-7989.0356,-7999.074,-7969.9785,-7979.57,-7989.6885,-7998.1885,-8008.566,-8006.183,-8063.7476,-8119.7837,-8079.164,-7990.61,-7907.7773,-7822.5195,-7719.976,-7681.708,-7716.567,-7729.987,-7731.1367,-7744.9805,-7765.183,-7780.5234,-7797.681,-7774.425,-7674.234,-7584.4585,-7528.794,-7540.6714,-7605.9277,-7622.438,-7622.8467,-7606.6445,-7575.355,-7562.761,-7518.819,-7458.0454,-7415.1953,-7376.5493,-7367.9443,-7389.713,-7373.528,-7333.8843,-7295.0806,-7238.9746,-7217.4043,-7198.187,-7168.883,-7202.173,-7244.6216,-7282.0034,-7354.028,-7418.997,-7466.7183,-7476.428,-7404.0083,-7314.3696,-7228.532,-7137.908,-7096.699,-7077.9937,-7107.4893,-7127.842,-7073.3145,-7056.6016,-7036.6694,-7037.8564,-7096.4834,-7128.139,-7157.1807,-7177.231,-7202.512,-7215.48,-7197.4873,-7158.2515,-7066.917,-6979.2114,-6940.321,-6966.773,-6944.847,-6896.747,-6987.7935,-7062.199,-7078.054,-7041.18,-6904.9517,-6823.9326,-6783.294,-6756.2627,-6750.872,-6730.94,-6691.998,-6625.3384,-6636.2075,-6633.7173,-6563.9707,-6563.2383,-6577.5337,-6635.3843,-6774.186,-6922.9624,-7053.139,-7068.0747,-6915.9272,-6730.301,-6594.2554,-6458.6514,-6425.352,-6480.7754,-6500.315,-6584.918,-6686.4004,-6711.1567,-6679.589,-6599.6084,-6576.32,-6615.8438,-6670.6816,-6678.118,-6592.1924,-6510.528,-6398.6694,-6279.7007,-6242.1553,-6210.9624,-6191.2773,-6186.6216,-6200.5967,-6242.0996,-6274.0938,-6314.595,-6323.7495,-6332.292,-6356.287,-6330.715,-6294.5767,-6253.2114,-6259.299,-6328.756,-6381.209,-6423.4883,-6424.341,-6374.2637,-6277.1987,-6195.865,-6245.1753,-6289.007,-6213.4004,-6136.988,-6128.742,-6164.617,-6302.8564,-6493.1953,-6554.8667,-6523.3594,-6399.596,-6139.353,-5885.8213,-5730.1104,-5702.319,-5780.6694,-5824.6323,-5805.225,-5768.3843,-5701.954,-5734.9194,-5793.2573,-5743.4536,-5828.2227,-5986.248,-6055.405,-6094.5405,-6032.215,-5926.3174,-5837.0327,-5764.9067,-5752.696,-5702.477,-5616.7417,-5560.937,-5484.0903,-5424.572,-5393.8384,-5375.85,-5422.821,-5436.2676,-5418.1416,-5480.377,-5579.8433,-5651.5566,-5644.6797,-5617.0093,-5541.6685,-5386.55,-5298.021,-5213.8433,-5150.378,-5190.9634,-5220.2524,-5278.385,-5380.4067,-5455.955,-5524.089,-5557.8867,-5526.651,-5460.105,-5387.963,-5273.901,-5136.6045,-5052.9277,-5013.1504,-5004.682,-5004.6616,-5012.716,-5051.3594,-5092.638,-5152.668,-5216.8247,-5348.5234,-5572.7363,-5628.9756,-5493.0864,-5320.1016,-5143.931,-5071.185,-5047.671,-5037.123,-5152.604,-5234.8853,-5160.007,-5100.54,-5099.2134,-5007.013,-4846.891,-4754.6396,-4679.3916,-4583.377,-4544.6846,-4537.1787,-4604.006,-4739.8223,-4755.8657,-4749.0474,-4815.0537,-4850.877,-4922.576,-4966.8154,-4921.201,-4857.717,-4669.561,-4396.522,-4187.471,-4055.6123,-4036.5215,-4106.4824,-4208.521,-4347.588,-4472.6587,-4544.656,-4625.948,-4732.2686,-4876.4346,-5052.7197,-5031.6904,-4785.351,-4554.719,-4298.212,-4057.1099,-3992.5994,-3997.0676,-4032.1238,-4079.532,-4143.262,-4255.6377,-4335.542,-4415.869,-4449.0474,-4389.9043,-4306.053,-4214.4497,-4168.8906,-4113.6797,-3996.9163,-3875.3079,-3814.5735,-3865.4968,-3961.992,-4021.714,-3985.8762,-3886.6592,-3858.1816,-3890.7134,-3895.548,-3869.5405,-3850.1377,-3852.6882,-3867.809,-3897.8108,-3909.3892,-3915.961,-3946.0647,-3855.7395,-3733.76,-3745.83,-3677.2056,-3552.9175,-3510.2263,-3497.586,-3585.621,-3695.2112,-3749.8394,-3785.1072,-3767.0522,-3720.1792,-3676.2302,-3612.664,-3491.282,-3432.366,-3435.0498,-3433.2974,-3521.6875,-3502.7754,-3372.3257,-3313.024,-3212.1392,-3159.103,-3197.8345,-3157.885,-3099.1885,-3094.5803,-3089.0515,-3116.518,-3166.51,-3193.3977,-3197.109,-3148.1733,-3132.771,-3125.113,-3060.525,-3081.074,-3153.8037,-3180.1436,-3214.8774,-3272.8782,-3242.1487,-3153.7795,-3244.3196,-3434.4153,-3493.6807,-3443.3743,-3302.2874,-3052.2625,-2842.2349,-2771.4807,-2743.423,-2810.0955,-3003.0083,-3144.6,-3162.307,-3055.2495,-2907.422,-2812.8489,-2725.584,-2673.625,-2648.473,-2560.7153,-2533.9343,-2593.07,-2599.419,-2689.814,-2897.078,-2994.3672,-2919.2417,-2781.3208,-2677.9888,-2634.6248,-2660.275,-2590.594,-2392.7441,-2299.101,-2265.087,-2240.9575,-2301.4463,-2423.9976,-2564.7122,-2629.2695,-2613.9746,-2599.1265,-2643.6162,-2675.46,-2629.3174,-2640.9111,-2684.1096,-2652.5764,-2561.6025,-2389.8018,-2209.4592,-2103.859,-2046.7021,-2046.0753,-2121.9902,-2267.5623,-2401.3564,-2482.5977,-2644.623,-2847.4185,-2902.4202,-2765.6345,-2485.6157,-2242.9324,-2131.4814,-2100.8452,-2120.2522,-2156.5889,-2294.947,-2484.4365,-2587.2761,-2673.6497,-2691.8982,-2527.4333,-2298.1716,-2110.8389,-1973.1852,-1937.7057,-1901.3285,-1806.132,-1775.8333,-1761.3241,-1754.4946,-1794.8859,-1852.9727,-1960.5303,-2108.923,-2265.2463,-2337.3643,-2277.5552,-2146.1677,-2015.7869,-1987.9728,-2003.0752,-1950.4352,-1899.6062,-1899.5997,-1877.7357,-1832.6268,-1846.9344,-1883.76,-1988.1558,-2214.3462,-2303.9111,-2214.4321,-2117.04,-2004.3202,-1885.0743,-1702.7008,-1530.101,-1459.452,-1407.173,-1524.4933,-1708.876,-1745.1982,-1859.7765,-1977.8511,-1897.6017,-1815.1313,-1781.9144,-1714.9905,-1682.4288,-1708.7015,-1745.2628,-1739.6163,-1688.264,-1657.3601,-1723.6835,-1795.7645,-1673.2322,-1487.2893,-1418.5586,-1421.3833,-1505.315,-1644.785,-1773.891,-1792.0298,-1695.1573,-1663.4663,-1588.0883,-1347.9331,-1217.8981,-1226.3633,-1219.6719,-1291.0577,-1362.5759,-1388.3632,-1426.052,-1385.9951,-1389.7952,-1458.2083,-1474.708,-1503.7583,-1544.9541,-1593.1556,-1683.0018,-1806.2291,-1867.9563,-1816.2107,-1716.0848,-1567.7645,-1455.9495,-1376.8273,-1186.0442,-1098.239,-1234.3258,-1345.0133,-1381.8195,-1352.7412,-1289.6678,-1293.6344,-1275.969,-1160.4208,-981.21246,-869.9011,-834.06274,-834.1659,-918.4977,-970.6888,-1024.0564,-1120.6061,-1234.5126,-1434.014,-1606.197,-1660.6393,-1570.9742,-1388.3666,-1198.9581,-1033.3494,-987.50653,-1037.4286,-1142.1207,-1229.4066,-1195.0386,-1142.1505,-1125.3988,-1061.1823,-958.30347,-899.19824,-898.7525,-958.1756,-1039.1877,-1054.8027,-1021.06976,-990.77405,-1020.3195,-1137.9005,-1344.817,-1607.5542,-1812.2694,-1814.9502,-1493.9254,-1144.3522,-944.1239,-618.196,-396.1286,-424.2757,-482.20526,-568.5705,-632.00287,-725.5749,-826.31525,-869.65344,-876.1485,-806.5442,-796.2789,-797.80066,-772.52936,-794.9836,-835.63904,-943.21564,-1040.4824,-1086.0188,-987.3394,-756.68146,-663.6041,-627.8623,-595.4657,-657.76953,-719.88513,-755.19073,-784.61975,-792.9392,-784.4506,-817.4985,-850.09076,-758.7213,-622.85535,-622.2314,-742.8335,-813.13184,-840.6981,-905.4937,-950.82416,-971.21063,-989.9459,-946.2379,-818.22076,-705.8232,-664.1623,-666.21716,-603.5308,-465.02557,-408.1808,-379.99002,-392.46964,-505.32773,-585.3558,-597.7353,-529.1023,-476.7195,-443.26355,-360.91727,-407.00522,-514.0029,-568.50854,-658.9018,-747.9242,-787.7365,-807.2808,-846.46423,-899.0949,-894.3084,-776.4865,-609.17694,-444.77505,-348.07812,-423.93854,-476.6415,-414.71555,-361.6017,-293.2186,-243.28471,-200.14029,-247.62173,-404.41068,-510.35837,-601.5676,-600.94946,-557.78345,-560.4558,-569.97485,-656.323,-693.34467,-639.7923,-466.19644,-254.64717,-159.68933,-69.76903,-101.11842,-243.82039,-410.6359,-543.63684,-469.17218,-386.30826,-398.90533,-417.6058,-449.46774,-473.42767,-493.18198,-522.42596,-546.4656,-526.064,-516.8326,-509.46094,-497.46912,-537.26105,-536.0843,-514.9939,-461.65396,-337.9284,-273.36935,-223.95792,-164.4114,-169.78297,-188.44997,-203.57358,-223.23691,-243.72298,-270.6641,-280.8648,-334.10065,-415.10526,-412.98352,-372.46417,-313.74405,-302.79004,-432.6826,-490.53748,-401.89883,-362.1699,-363.26398,-335.33658,-331.1348,-381.22675,-464.17737,-515.11816,-516.9636,-427.6979,-225.92657,-162.39667,-232.52325,-280.78836,-373.68912,-328.34995,-196.00288,-168.93999,-186.8889,-289.5987,-335.39224,-333.8529,-387.85822,-431.18387,-587.7926,-707.889,-557.0538,-258.4412,-5.0630064,132.34074,176.69473,123.0635,49.301968,-1.1815591,-66.203896,-137.56053,-224.1381,-290.20108,-256.29303,-112.097176,15.355346,19.109844,-73.71789,-137.80806,-108.47268,-84.26085,-74.85787,-58.2516,-44.038956,-32.742886,-96.55535,-247.09795,-515.3158,-848.16064,-1038.557,-968.8476,-567.49756,-35.412136,268.13174,330.01978,285.87286,243.81564,218.54155,132.53078,63.0701,63.06817,30.567856,-112.1484,-324.76776,-439.27893,-391.4969,-248.63802,-37.57159,128.95857,200.30223,302.59286,373.8797,340.74747,309.0601,233.72435,98.89544,-13.772942,-110.8936,-152.04689,-156.58217,-191.44789,-236.97137,-241.97292,-192.67143,-161.1875,-177.86172,-237.78146,-276.71796,-188.61086,-57.207005,19.662636,126.24224,288.88058,380.0974,380.5069,333.0561,200.12108,58.746563,-14.63468,-73.4187,-134.32272,-167.31383,-146.24649,-69.9005,42.422997,164.12863,269.09656,357.67197,403.0841,274.7207,-59.339058,-387.90045,-545.4408,-465.1752,-168.78415,153.65219,368.35663,437.54736,398.41248,355.6212,326.3686,302.12537,339.43765,380.76608,347.71463,358.10278,397.98746,399.38126,401.63452,316.15628,140.71387,-18.221684,-99.43354,-89.62515,-38.161236,-12.051134,36.512287,186.61174,254.99155,212.88489,186.3856,118.492256,76.788506,70.520035,70.613205,129.10805,167.18541,218.77441,355.86365,474.82333,488.5815,378.53778,209.3634,102.323395,77.5979,94.911224,98.18231,63.795525,-4.5658836,-15.289735,181.64346,416.6839,531.6221,550.8616,500.3429,481.96628,421.4353,340.85498,325.74008,306.62552,288.1488,236.09705,136.38884,-20.056217,-78.1596,97.129684,301.23294,459.38422,516.5435,444.14487,400.4398,363.35208,291.521,255.5453,269.08798,313.25836,330.9543,288.11255,281.63617,366.50095,454.3433,514.15485,579.86487,638.025,669.2904,658.1467,602.92426,515.7125,408.20847,343.43387,325.89752,305.9017,307.02063,319.47476,329.40347,354.47327,388.6976,420.27655,414.62357,393.55035,396.99344,415.47522,422.37585,406.9829,394.17545,327.81232,244.2185,257.06665,265.64917,234.98126,219.51492,211.63449,282.77692,387.26257,443.92062,523.3726,634.01276,732.6839,754.25543,708.5956,717.4158,747.862,687.54034,572.70856,547.373,520.6675,351.46725,267.3073,349.48605,412.17743,376.41992,369.78766,496.9595,563.09326,573.6814,625.898,654.09094,672.4836,559.52094,404.5471,389.17697,344.0117,229.17348,194.01,310.7885,496.15732,623.0293,689.72845,705.9621,614.4137,423.65094,237.63077,145.75897,253.01079,462.67563,591.78046,750.71906,873.4856,796.12976,685.61035,686.402,756.9888,789.93414,805.1837,815.41724,758.63525,697.4073,603.3319,488.5475,451.2766,467.79825,521.32526,552.22723,536.124,583.6058,713.0171,791.0649,794.9055,802.2518,769.367,692.25446,613.84625,501.6259,396.90106,385.43637,428.30157,450.51395,494.29776,532.64734,444.10684,291.2322,276.79578,453.26428,577.1147,548.79736,596.22766,715.16125,801.7671,879.5338,902.8433,868.305,729.73126,558.38934,532.0218,577.3686,687.47974,785.8215,710.80145,657.93616,675.1734,605.5184,529.6145,525.9997,563.49915,606.0659,613.0704,647.38715,765.94183,825.4834,767.44794,647.3374,423.11954,197.44981,123.77761,221.49661,475.51498,772.30475,1035.2784,1167.8949,1046.3914,853.54156,750.70087,681.29834,603.56165,495.47778,456.62552,586.35486,784.5218,883.3808,903.523,919.7513,884.90076,860.21686,794.7489,675.1982,666.8821,690.091,752.63354,853.0022,871.94556,880.42944,872.6749,818.1371,749.3782,715.0912,723.4299,746.39417,771.77527,741.3767,739.5114,775.63544,802.9115,856.2894,805.12006,703.78235,690.4513,642.877,476.13953,304.00647,295.21414,399.51385,520.8982,725.272,890.3237,876.96295,826.6715,768.5007,716.6152,799.8287,885.5829,904.181,960.1615,997.5791,1021.1374,1059.923,1061.014,1062.8488,1065.2511,1011.6241,916.7306,770.8499,587.2669,500.42056,556.03485,674.92944,821.84686,931.74243,894.7081,786.16797,770.3344,782.2299,780.0512,802.50476,766.9361,746.5775,769.9238,740.06067,686.3067,571.64813,491.3867,560.798,654.55457,717.1976,740.78784,810.94934,968.1471,1035.7705,1014.7821,1001.21954,901.0272,701.52277,662.6575,783.63,887.8668,1079.5288,1204.3586,1189.8538,1252.2997,1276.8507,1236.3126,1198.7201,1132.5654,1066.4944,952.66473,806.5879,702.6125,612.91736,490.18536,414.91788,423.25488,450.33987,558.5266,717.60376,869.23474,1040.4371,1160.6154,1225.4032,1253.5479,1258.563,1267.8735,1232.7687,1167.8005,1126.9922,1116.9807,1097.7274,1065.3523,1035.863,995.1382,989.7237,977.1276,914.02734,843.3026,760.13763,693.04663,600.3733,529.7371,596.3836,657.6166,726.7522,892.52423,1012.55457,1091.1179,1135.6948,1108.4921,1056.4764,966.2475,922.3951,886.8524,796.25165,807.6025,874.74536,951.25586,1069.487,1167.865,1218.8965
1147.4427,1030.1901,1006.6989,1041.1205,1102.6895,1148.6075,1155.9114,1134.2223,1019.0909,859.1829,766.4485,743.76904,801.16766,887.8781,1001.6563,1125.5479,1111.7433,1052.0718,1028.3185,1002.13385,982.726,871.7964,660.2022,508.33276,540.77625,646.79846,767.41833,929.4336,1043.6904,1186.756,1243.2512,1130.3312,1045.7075,948.88324,863.1871,787.3879,713.6347,798.5575,955.3851,1096.8132,1199.4186,1241.366,1268.1019,1230.7888,1198.9114,1220.5844,1211.0093,1215.8649,1187.4008,1105.4841,1076.4276,1041.7806,985.4708,929.8049,845.84106,775.6518,727.7454,684.5467,681.7173,724.31006,735.40515,754.8629,822.9428,876.22754,1010.8982,1192.2914,1251.733,1237.7323,1231.8494,1228.1812,1184.8441,1131.2267,1059.9592,916.49524,840.78784,884.2885,893.47784,907.4524,1039.9103,1132.641,1180.0632,1290.5925,1283.9323,1205.7736,1154.0769,1085.3615,1068.1992,1033.3297,1001.5551,986.2341,894.9572,807.3916,796.5739,885.7927,965.90955,991.054,1104.8888,1254.1362,1317.0627,1327.3208,1324.2535,1291.5249,1243.142,1193.8716,1119.6538,1044.8241,998.2178,968.47205,944.60095,926.8021,935.02374,974.0916,1018.2037,1035.0885,987.57074,879.7984,781.8476,729.1079,738.1566,810.05566,891.8847,1001.95325,1082.6243,1066.1439,1058.6816,1026.6204,974.7668,1014.9252,1024.1814,992.5567,1027.9857,1020.1676,987.13806,1005.1268,972.1928,989.53687,1086.7595,1104.4867,1115.4215,1146.875,1172.2998,1204.2694,1202.5071,1158.9587,1058.7043,969.28107,916.4262,894.5445,910.0447,858.5744,768.0639,760.40594,823.92096,918.105,1093.592,1251.8921,1273.5286,1275.7257,1265.7329,1187.6752,1100.7172,1052.8794,1012.6997,1034.4346,1116.654,1067.3113,1008.14484,985.36816,894.97485,902.47626,974.3973,1025.5851,1084.1356,1137.932,1124.5199,1018.1753,953.6428,918.96246,863.3419,765.0301,623.99817,591.0165,601.5488,618.69464,764.10583,917.75507,1078.0167,1312.6764,1397.08,1332.7635,1297.9384,1250.8785,1173.19,1109.7235,1109.2976,1143.8448,1186.3911,1248.7799,1246.348,1204.8821,1124.9655,985.567,809.5539,590.44806,497.08963,601.63934,865.0906,1163.0248,1307.2095,1348.8053,1313.2126,1245.6045,1185.603,1093.9437,1059.35,1056.1351,1054.3881,1077.4473,1088.1776,1095.2367,1101.4216,1091.616,1036.0449,977.82074,964.76306,980.5949,998.86017,990.642,963.2925,921.90845,982.0928,1114.2904,1122.4993,1097.3263,1111.7029,1115.6674,1174.6472,1268.3307,1306.9955,1338.9486,1363.3657,1304.1462,1229.2502,1144.3777,1025.0111,924.958,804.3691,664.487,623.24036,738.56915,870.401,931.1187,988.8121,1033.0026,1097.5449,1182.7238,1191.3469,1154.0658,1179.11,1268.8013,1278.4939,1207.1914,1166.0698,1165.1036,1204.8417,1228.5547,1218.6019,1192.7195,1151.4279,1151.7734,1159.5382,1148.7532,1137.8082,1118.0056,1102.9657,1066.7135,1034.9565,1038.9758,1020.33026,949.5064,879.1148,848.92645,855.97754,964.35986,1123.7773,1202.2572,1219.6919,1220.7025,1203.6929,1132.665,1085.687,1125.563,1148.3105,1150.0267,1139.7474,1123.7395,1104.452,1045.8024,1039.4897,1081.0432,1103.2904,1107.7603,1073.3716,1043.0796,1028.5149,997.81805,928.152,821.80804,803.00916,862.6241,851.446,836.79474,882.107,959.27057,1132.6067,1329.2999,1412.5686,1366.8662,1286.0051,1240.3926,1170.896,1100.1859,1034.6158,1011.39154,1034.4222,942.4531,842.06256,844.96466,871.2157,888.3828,907.1037,955.8992,972.2007,992.8899,1039.8057,1046.6936,1077.5458,1133.0459,1130.845,1041.6653,976.1794,947.43835,885.56445,867.6282,935.29407,1129.2876,1283.4944,1302.1694,1355.4196,1348.2432,1284.1941,1263.8712,1231.9563,1188.0957,1141.6625,1122.118,1090.6653,1040.0833,999.80945,965.44977,964.15356,946.98456,898.1996,826.7867,807.78156,907.5025,985.86835,1042.5719,1149.9954,1237.8085,1305.5188,1317.1598,1257.6047,1229.1921,1200.9623,1147.9506,1107.6848,1087.6959,1112.8304,1132.0142,1142.6626,1166.025,1186.4105,1209.0641,1205.8271,1202.9948,1188.6399,1146.5669,1117.7385,1083.8922,1013.2893,896.6456,828.5447,853.52826,870.9028,839.1363,833.0989,933.978,1035.4805,1039.3779,1003.2474,926.8629,829.0255,761.49066,754.197,856.7427,990.2241,1056.1761,1105.4355,1126.8745,1078.9023,1052.8818,1059.3737,1023.9084,1017.98627,1051.7031,1015.04083,963.06995,953.4159,952.9894,971.594,985.7418,974.488,949.6596,951.0223,994.39606,1004.83215,997.7702,1006.13293,926.35095,784.7919,713.5777,701.28253,755.0518,912.5827,1081.744,1155.9988,1111.0878,1041.5481,1031.4894,1050.6313,1060.8362,1009.7659,992.5342,1087.1023,1122.5297,1058.6938,943.3016,826.415,765.11084,719.4749,767.0461,901.4921,997.4991,1052.1868,1038.6234,967.09937,930.7499,930.7182,906.31354,856.6149,832.3834,850.51166,853.0572,869.7712,981.77997,1094.237,1134.7552,1116.5605,1053.9454,1038.7883,1040.7109,961.8046,890.95374,871.5414,837.20044,848.1052,939.1521,983.136,969.65094,1016.9369,1034.352,966.83636,990.5094,1063.793,1073.0166,1072.117,1047.7147,1004.8109,961.0244,898.0838,873.5644,841.49524,739.18475,681.90717,675.90295,634.59247,592.4338,579.0006,543.3489,516.2134,671.23914,950.7767,1149.1008,1259.1781,1279.9575,1226.2228,1112.789,993.6855,970.72955,960.838,984.66254,1040.2723,949.6312,825.74976,813.14703,809.52563,821.7055,907.13605,956.9564,947.23285,939.88885,885.8798,844.8683,896.4988,924.7002,909.8635,933.6087,977.1971,999.7592,988.12164,997.9684,1025.6892,998.0268,972.15735,957.7688,937.9271,955.57715,958.5239,973.87354,1021.576,959.3115,806.6319,725.1144,710.4408,694.6292,702.63007,749.2924,769.8811,672.4808,569.56525,519.4154,386.60037,420.96518,672.9829,826.43976,969.629,1135.9257,1215.4656,1194.933,1127.333,1104.3462,1059.6602,1034.3076,1024.0109,985.45416,1002.11127,1021.24115,1045.0072,1047.4161,1023.12866,1027.0524,997.024,947.9524,861.95404,797.787,792.6873,735.3577,710.49207,762.4774,812.78687,839.74084,838.91693,830.71564,857.14856,866.3558,807.85205,814.23785,837.4279,817.5054,843.7794,818.08075,784.1844,837.41583,919.98663,989.6732,1008.99866,1004.64307,982.9813,961.24664,932.47534,887.6973,912.23376,953.1674,941.01526,924.005,920.99554,908.89087,904.27966,944.4175,998.46436,1063.0645,1076.6312,984.43097,924.0329,900.9345,837.96246,796.9291,789.4472,780.8743,768.46265,782.38763,828.80884,842.7944,802.1598,723.1768,582.0765,373.01852,213.3457,252.20335,455.15848,681.6012,875.0508,1014.11237,1052.5698,1021.7015,985.1337,953.8804,951.2447,941.0626,905.60645,897.5326,887.3285,887.2597,925.6349,975.01636,1021.8022,1031.3998,1043.2626,1059.9337,1012.88153,951.92816,903.27844,839.15344,772.2741,690.8374,585.4178,507.17853,504.00797,527.88574,522.60706,534.87933,611.91815,691.6277,729.9064,812.1579,920.83276,968.1471,984.3511,949.7422,879.13403,832.7282,824.7358,827.2461,722.516,608.3137,596.25836,620.72076,703.8162,779.1764,862.4492,967.261,981.6679,1011.1858,1013.4922,937.67804,890.8057,818.3895,790.7479,834.5968,886.3719,918.9845,859.3376,815.1768,775.11865,691.2655,669.174,641.74133,623.7507,702.6548,783.53204,799.5451,820.3412,848.1705,846.7578,875.2915,879.93066,852.683,878.19727,889.4919,840.3394,747.8975,693.81665,727.17114,759.03107,752.1996,720.0657,651.70337,568.5386,599.00464,733.3693,799.74786,775.9799,692.06226,603.4269,537.2548,517.68964,612.90594,692.40424,712.42163,772.25635,763.939,646.10736,581.7874,563.342,553.7548,639.7525,740.69684,817.3728,892.0352,932.68616,950.49817,901.80304,843.0596,794.18207,724.5339,718.64935,756.94476,802.11475,825.14075,819.7281,830.3241,831.93494,823.2225,805.8153,782.33276,777.23083,793.2667,803.53253,748.88434,674.69904,656.87555,681.56555,687.3673,654.9075,655.5696,658.25867,653.3047,693.0947,678.8023,577.25336,476.7784,417.83716,367.6776,373.245,493.64468,626.24335,744.72516,851.4451,896.46826,878.9161,823.00165,736.4795,596.23596,515.657,492.83936,397.46613,324.03677,388.01733,529.8711,601.44147,677.2975,829.1186,914.7359,910.36414,825.21234,774.04443,794.99664,753.11285,713.71875,691.6311,629.97284,576.1888,590.78296,676.6015,737.3184,741.573,761.7663,819.1008,831.18146,816.8251,845.27075,832.358,783.6665,755.6259,709.322,670.1605,664.8617,664.1976,669.07056,677.0455,654.6641,606.3496,572.4895,588.4536,642.339,664.7014,661.4378,688.6721,705.8464,690.2042,695.9361,719.69464,727.95306,706.9541,684.8587,683.301,648.4447,636.3732,692.1418,716.00946,706.6233,687.3255,655.60785,636.7104,609.24005,577.45953,549.05444,494.38083,465.43076,548.10004,657.55145,657.4687,605.20526,584.2893,547.87604,489.18594,501.5349,577.89496,617.2457,642.6856,695.0333,676.51965,598.3529,590.42914,583.5611,554.3578,587.57227,586.6528,561.609,574.718,535.8182,456.95822,387.3293,346.49374,405.36414,556.0309,658.28253,673.51276,722.61725,742.8198,665.0673,612.05,585.6165,583.90656,581.5031,500.257,365.60648,209.76007,183.41919,288.51114,405.79584,614.8642,775.99445,806.48596,870.8434,854.86633,739.0577,650.2277,542.7852,485.83768,472.13193,443.6744,444.79968,412.16687,396.78595,406.05902,341.85092,301.59344,348.31195,421.33203,451.3692,401.8444,352.56845,393.26074,432.6218,405.53192,417.6794,458.28656,455.1329,473.61392,556.50714,599.1889,573.35596,579.0224,578.7183,548.29596,606.97284,724.24585,786.18585,832.141,860.5553,824.5223,762.0674,683.42206,604.7528,529.3967,459.00256,417.259,375.10153,326.22388,319.53452,364.5588,389.92053,416.01544,469.64127,488.0767,504.69913,540.7226,578.06805,588.2535,593.245,638.17523,615.0641,538.5062,457.51007,354.96713,318.1395,302.01886,264.851,217.80756,186.59952,252.06114,289.5761,286.59866,383.4053,498.19534,559.15796,573.3682,510.7032,438.72574,470.49335,506.3191,406.82822,338.39954,420.36066,463.8092,467.0841,543.0091,583.7858,597.71796,600.74164,550.76526,545.2084,552.3699,538.05066,540.97424,542.13104,561.6709,581.5165,574.2166,528.1364,431.1332,268.03625,129.49216,198.09761,310.66132,326.00833,408.2257,469.1031,430.17947,404.0834,366.11353,321.83142,306.60004,290.58255,349.83173,530.717,654.5906,622.7712,561.3407,520.21686,454.95093,412.764,423.57452,419.43893,431.43692,448.0826,407.6486,401.60004,402.3455,377.8182,360.89963,350.2327,435.73325,500.62534,456.15347,457.59818,488.77457,495.72604,503.07162,512.509,517.50653,496.14127,474.4392,416.34848,305.22104,280.53033,334.01984,355.92612,379.52966,424.5827,438.13312,413.35446,395.0558,386.22696,361.58334,348.63425,346.9711,308.55658,268.60657,299.48615,349.9314,368.2533,420.81168,493.53644,508.283,448.00125,309.19458,107.70622,-65.88371,-68.039185,38.7724,162.48593,345.16574,406.04645,375.4214,435.5243,422.95502,397.09946,425.25287,379.0274,367.5873,397.83145,397.7406,440.46637,520.15955,524.3676,487.3165,501.0257,474.63254,408.0404,349.05768,320.28815,336.52832,337.86453,357.196,341.86847,272.32965,196.1367,143.0616,187.1451,220.11687,281.3316,374.82187,352.70206,317.23825,287.30942,275.0283,276.25912,254.99364,279.94034,262.53503,208.86623,184.68236,139.10144,82.422066,115.53699,212.01234,232.03014,287.6757,328.4265,282.00766,347.70285,413.01675,398.8315,369.13657,308.59195,296.99652,324.4988,331.99686,319.42358,315.39453,305.28098,259.3693,241.3778,229.43877,203.31136,272.44196,342.3185,291.13245,262.75296,262.7326,260.57642,272.42825,205.39423,174.72374,231.88118,270.51407,279.89676,269.686,287.12668,269.77496,162.00235,47.124683,7.741887,46.773857,94.88481,162.38069,246.74295,348.61996,404.92123,347.17258,333.03714,314.70862,242.59192,239.13132,228.08112,220.01945,230.37341,223.19199,234.66893,242.53554,273.05838,285.62936,238.3582,196.573,164.399,148.73799,176.26413,210.13823,190.28287,128.11418,67.13439,37.35652,30.140408,34.22719,64.3474,49.034935,40.932556,131.27193,192.54308,222.42627,278.30716,275.04156,201.97964,148.41939,169.26405,146.26938,44.69942,17.344685,47.25658,38.14125,-20.976944,-59.572014,-47.076046,-13.741531,62.79167,124.24227,180.64673
256.74677,314.99112,391.91156,425.84753,401.69534,324.39774,206.76515,136.34708,73.00152,50.88355,61.638855,47.774826,82.88573,113.847885,119.84381,128.23018,131.85893,147.8948,121.0031,113.45734,135.48769,117.1367,156.35475,208.20183,220.28137,251.84552,262.8997,261.5637,234.37111,186.0446,156.82082,115.82299,102.317604,107.373,97.21192,73.4767,36.830765,41.373337,51.37536,54.72784,82.271,104.418976,136.06427,183.61052,221.58716,210.09972,175.57138,164.58372,144.06346,124.91495,126.781876,117.201904,79.49969,40.589355,11.8706,-1.9661362,-2.3261118,-14.0327425,-4.7299404,-20.194443,-63.161167,2.0520546,105.29898,144.49342,117.98504,18.946812,-47.4985,-90.60699,-176.1651,-183.2504,-122.82908,-111.210724,-76.7011,17.015333,100.80591,193.05234,267.07852,292.7571,310.33835,274.46906,216.96178,187.9874,151.65845,150.72758,154.01974,134.75027,135.84894,122.05781,103.55645,85.051094,47.30533,-3.5363681,-66.42361,-91.971756,-37.208916,52.749638,104.154976,124.99183,96.05816,46.65132,51.663467,21.736542,11.142979,77.980034,95.49621,92.24213,88.58056,54.867767,21.533545,25.436016,91.89722,106.13542,13.619675,-90.930305,-154.02391,-168.18599,-146.83675,-48.185947,96.76537,197.74046,273.41983,304.1114,297.69794,267.43936,205.71172,187.5893,182.18156,161.65894,160.98076,171.31926,179.32957,157.02322,138.69945,113.175766,53.382675,10.437588,-17.999723,-31.626673,-15.918233,22.056608,11.697891,-46.59325,-43.310097,-61.113297,-106.03591,-45.079052,-5.3135386,-19.561275,53.988514,141.11601,194.64618,238.05095,217.34015,146.17935,33.503677,-53.17473,-46.940155,-24.386381,35.87529,127.78389,151.76353,140.07594,116.12127,83.99041,58.84195,-3.394593,-40.011456,-12.727221,8.275026,22.83363,13.552587,9.246474,39.456936,14.186022,-60.71862,-85.25863,-40.293144,-1.7214161,45.044636,94.74863,64.2441,48.248455,47.98616,41.050888,84.85498,56.17405,-30.87622,-110.03901,-186.68217,-214.87025,-232.88646,-198.19124,-90.213,-29.11562,-22.423239,40.278263,93.25325,29.677433,-9.753565,-64.61112,-133.69507,-77.95404,-81.02806,-70.92604,40.32088,59.76458,36.461876,-26.12313,-99.70189,-146.65746,-211.62639,-193.43333,-140.18526,-66.49806,26.957623,84.8625,138.22464,97.879036,41.228233,-35.16689,-240.90027,-394.97717,-426.8488,-371.55255,-257.248,-114.036835,36.08794,108.54557,101.23261,84.28315,110.306625,144.87729,163.7323,175.62216,173.04027,172.23532,147.6727,122.24769,93.335045,11.320116,-81.93918,-171.752,-232.19629,-217.6135,-197.45952,-195.14268,-161.27509,-123.05455,-61.59333,-34.589783,-119.30032,-129.21692,-42.958656,5.439306,40.12939,36.35518,8.78276,6.757005,19.846046,47.558735,91.74898,132.16998,97.95624,45.40906,4.773104,-87.49177,-183.45184,-298.81097,-402.53854,-372.53568,-185.92282,5.769415,72.609795,153.24365,204.54352,129.90515,98.1723,94.06067,37.557297,-9.77222,-3.277796,29.908968,29.51928,21.083704,19.823082,-18.239483,-78.763336,-157.97858,-263.17947,-272.09576,-183.72649,-158.71098,-114.48085,-38.757484,-70.4708,-108.2877,-170.51157,-278.4672,-268.18158,-233.53433,-178.44543,-8.484786,35.847008,-43.929058,3.5404894,53.401623,44.802544,120.98678,136.11441,63.87018,45.72634,49.648365,85.807495,88.68071,46.758163,35.34602,-17.056126,-55.710426,-51.896988,-49.45075,-29.113403,-25.89819,-21.965052,-34.1203,-69.473434,-138.06729,-289.26608,-410.75342,-412.2583,-287.85406,-173.78285,-183.65662,-169.49832,-113.200226,-31.660177,58.597668,65.95299,104.01582,117.529076,51.991493,47.53989,7.123334,-27.705914,-1.5985118,-20.9464,-33.924572,-69.08769,-85.09489,-55.144093,-44.678627,22.608116,69.54169,40.356674,-22.887293,-107.822525,-127.768364,-123.59715,-152.35797,-182.41481,-215.45995,-238.16905,-247.32468,-270.18204,-314.62482,-320.22055,-267.53726,-180.88568,-61.632885,7.553424,50.877277,107.63842,76.81452,16.803679,0.45385808,12.244498,15.509851,-24.96985,-52.294926,-93.60173,-125.159935,-97.569435,-85.97298,-95.13373,-132.74557,-172.14229,-179.24162,-177.3212,-141.03954,-65.8137,-4.524594,-20.590446,-50.320217,-69.86879,-132.80885,-170.7823,-202.20598,-221.56023,-172.1343,-157.38602,-186.06596,-156.01257,-91.66003,-61.409695,-41.995464,-32.06317,-58.427185,-80.73505,-81.200455,-74.82622,-48.126904,-16.938862,-67.41924,-190.55695,-336.98315,-493.0403,-549.37164,-550.2815,-577.70013,-535.51807,-430.14703,-307.98203,-165.8966,-33.849545,16.30561,-12.220244,-41.334183,-117.65324,-251.81895,-366.4442,-458.74146,-489.91138,-417.20105,-340.58066,-277.69388,-181.5697,-140.59515,-115.725494,-84.6671,-100.27513,-95.79685,-62.79259,26.75875,79.65567,23.629938,-5.6477275,-16.648243,-7.986191,-8.745769,-54.087296,-83.6191,-161.90038,-247.79684,-254.16872,-208.93317,-170.37332,-189.75258,-260.59354,-409.25992,-561.1127,-568.79285,-474.4971,-359.85355,-211.55878,-98.72491,-103.007866,-148.56248,-197.16652,-229.91801,-182.95564,-132.15768,-113.26716,-72.5375,-67.90567,-122.4673,-171.03217,-170.4301,-125.37633,-94.898026,-109.58712,-146.76509,-180.06766,-225.81876,-288.81705,-320.93304,-343.97382,-357.7789,-313.84,-255.93182,-210.80942,-178.63925,-154.9101,-135.79913,-157.35599,-192.60405,-254.60048,-317.21967,-284.53687,-240.71808,-220.29837,-217.71318,-258.97928,-293.36075,-324.2939,-267.41693,-176.23375,-189.78499,-199.56326,-188.36757,-188.76025,-229.89867,-274.5703,-239.93044,-231.31796,-247.05434,-253.89124,-272.57043,-324.25803,-407.00656,-380.1139,-283.5247,-230.15016,-250.18112,-318.37585,-317.8419,-293.47238,-261.18652,-179.89873,-117.95446,-83.30044,-73.45048,-57.472637,-29.705559,-45.318756,-74.75318,-101.28984,-138.71014,-189.29817,-254.03615,-340.86475,-456.33786,-493.9902,-413.85388,-351.5997,-329.8558,-291.14426,-247.3604,-242.10043,-312.41452,-343.33188,-305.29752,-339.63364,-387.26892,-407.23105,-386.29053,-253.7642,-181.83853,-224.23882,-248.18343,-254.35188,-246.86217,-220.66388,-169.22456,-123.47615,-120.580376,-117.063354,-116.3302,-125.676674,-156.37964,-188.72104,-178.31865,-182.5782,-192.34885,-201.31148,-225.15434,-220.01714,-218.97765,-216.91829,-222.26067,-287.93683,-368.2549,-398.9961,-389.2061,-383.38293,-344.89615,-305.47134,-299.67825,-250.70378,-217.43277,-202.37222,-163.21797,-175.29301,-198.17253,-183.61594,-168.7557,-154.00616,-140.91994,-137.57877,-122.95313,-135.55788,-189.74966,-220.79962,-251.90678,-285.3216,-311.4845,-339.70425,-352.95056,-403.3479,-446.9475,-479.86224,-564.5933,-586.44025,-528.95306,-452.3754,-336.47488,-254.75456,-311.9662,-454.59534,-535.49506,-539.6023,-527.7529,-549.77563,-541.16156,-378.5848,-210.96686,-114.18238,-27.789455,-18.692633,-37.240005,-82.67404,-160.20251,-188.68344,-213.48936,-236.07182,-244.90108,-253.8346,-244.3694,-243.72339,-286.77478,-345.88654,-376.8232,-406.25085,-407.14813,-394.52054,-380.13577,-294.1111,-300.77472,-407.3032,-438.9613,-452.24518,-444.11514,-410.12088,-373.26385,-289.1506,-220.72232,-247.9488,-304.2542,-291.08057,-291.92703,-270.8061,-154.00598,-117.11572,-150.24768,-187.25172,-256.86963,-338.51367,-447.02234,-521.6063,-600.5726,-689.2853,-681.9025,-630.1572,-503.97607,-412.49582,-479.66946,-498.89963,-447.7495,-330.88477,-154.80298,-122.28791,-152.37761,-130.31923,-140.30133,-198.34668,-253.53464,-260.30133,-292.09048,-358.13297,-376.682,-389.45236,-461.0753,-559.5529,-564.969,-506.9575,-490.9955,-457.5918,-402.97418,-363.36258,-325.419,-327.5102,-358.40027,-407.44644,-491.09467,-540.06775,-523.36975,-450.46954,-354.87424,-309.61807,-297.19803,-272.91553,-258.58698,-272.34198,-254.15324,-233.92087,-262.4214,-275.74255,-307.2861,-327.40686,-321.886,-348.61624,-350.96014,-368.48236,-404.4729,-429.87128,-456.9417,-460.9718,-494.59448,-509.43042,-453.7361,-424.47296,-440.70966,-432.81918,-394.78415,-383.83304,-409.14005,-439.40317,-439.51968,-437.9709,-475.3093,-520.88293,-553.086,-533.073,-481.85074,-429.29214,-403.25122,-472.90155,-515.0214,-512.0229,-545.4686,-525.6055,-492.84512,-505.22952,-585.00397,-668.1215,-615.0146,-557.8938,-529.45435,-446.5616,-396.56274,-389.69522,-400.18848,-417.2129,-444.54187,-487.88263,-495.22125,-490.4972,-501.35504,-502.54443,-506.9497,-523.38196,-550.1863,-572.3723,-598.4649,-656.4783,-692.1782,-713.5911,-784.0394,-846.1427,-857.9141,-842.8235,-785.6505,-700.4923,-662.3703,-610.3661,-518.28174,-513.66724,-508.8871,-482.34546,-522.79877,-528.9951,-555.6898,-634.6404,-645.22375,-606.82324,-574.2803,-563.2882,-583.84955,-673.1202,-822.24603,-963.8653,-1002.1141,-915.2014,-844.78687,-784.36096,-718.63684,-705.15686,-634.4335,-584.90717,-616.26965,-589.2056,-611.8236,-692.7459,-712.7286,-750.9263,-804.07794,-811.5984,-754.69257,-672.61444,-595.12854,-516.5095,-538.2066,-609.51025,-670.15027,-764.4554,-823.4359,-847.4162,-827.23975,-769.95953,-723.9625,-702.69867,-755.6824,-792.79865,-783.51526,-793.2089,-796.45544,-782.0755,-749.6551,-758.86835,-801.4125,-842.1712,-897.4528,-908.2936,-874.68427,-803.85913,-743.23834,-754.9378,-778.70514,-829.1721,-896.4518,-901.0334,-840.77625,-742.4635,-691.04443,-713.64355,-744.59595,-759.42694,-736.91156,-724.42084,-769.68634,-832.78546,-881.25287,-883.0911,-896.2923,-941.867,-945.5237,-945.7807,-978.1006,-1009.0623,-988.6671,-921.348,-858.53467,-810.15784,-796.37573,-795.1139,-802.7123,-816.48706,-792.7643,-763.97736,-748.0003,-783.9914,-831.762,-814.2077,-815.8473,-854.7685,-929.4643,-1005.257,-1017.2235,-989.08203,-917.9691,-895.14703,-928.0446,-944.5321,-996.6091,-1051.3894,-1072.904,-1040.3303,-950.7048,-874.0738,-827.22186,-808.72687,-777.4622,-746.4756,-774.21375,-817.5214,-873.3269,-925.92456,-947.59735,-984.865,-1040.5558,-1143.5975,-1270.4312,-1369.9003,-1457.5299,-1413.3531,-1246.3973,-1090.3578,-941.1151,-876.1438,-855.0805,-761.47046,-753.6245,-856.1026,-909.44464,-973.97327,-1050.551,-1041.591,-1052.0448,-1092.677,-1075.7604,-1044.9923,-1016.27545,-996.2708,-1005.6483,-1005.324,-975.21844,-952.12445,-949.0371,-921.66815,-910.2079,-974.14465,-1032.8019,-1067.8036,-1141.769,-1220.7793,-1228.3705,-1172.5756,-1104.4169,-991.06354,-907.8919,-910.94727,-877.28174,-877.0116,-937.6021,-964.10364,-1016.85986,-1068.4663,-1070.3506,-1063.636,-1087.2981,-1142.7708,-1154.3164,-1102.5869,-1030.7144,-1011.97174,-1039.8182,-1032.309,-1077.6887,-1174.0607,-1200.183,-1207.739,-1174.354,-1085.7433,-1044.9169,-1029.0538,-1051.5919,-1100.45,-1091.7701,-1076.4241,-1086.1573,-1110.7744,-1124.2961,-1101.14,-1081.4496,-1086.6145,-1129.2347,-1179.7762,-1217.0933,-1270.012,-1278.4019,-1187.9553,-1101.3654,-1086.502,-1064.7059,-1045.9948,-1067.4065,-1100.1783,-1145.2881,-1173.2979,-1183.8271,-1172.2295,-1148.1754,-1160.7449,-1189.4437,-1232.6023,-1234.5415,-1185.6188,-1178.7861,-1170.4968,-1143.3187,-1147.9525,-1175.6417,-1188.242,-1175.2021,-1200.0874,-1293.939,-1423.9741,-1518.7855,-1584.8173,-1606.8235,-1436.2063,-1226.4467,-1188.711,-1176.738,-1135.6718,-1135.0991,-1155.4523,-1238.7034,-1368.6746,-1396.2136,-1338.8108,-1287.3501,-1227.7146,-1233.0741,-1317.0746,-1365.4569,-1322.3009,-1236.0713,-1219.0543,-1188.7981,-1116.2783,-1124.0419,-1138.4637,-1156.1162,-1193.8062,-1201.0369,-1211.7664,-1210.0778,-1201.7205,-1184.7322,-1182.8351,-1221.3823,-1238.2311,-1246.1006,-1264.1736,-1311.2305,-1384.4597,-1466.915,-1587.1075,-1623.5859,-1538.9719,-1491.4167,-1475.6952,-1443.1125,-1408.0132,-1361.37,-1321.9113,-1284.2506,-1293.0968,-1344.2,-1382.4434,-1487.6708,-1619.0682,-1614.5322,-1464.8684,-1339.1785,-1257.558,-1142.3492,-1117.3875,-1150.625,-1181.7184,-1248.8099,-1283.8315,-1301.6798,-1323.3573,-1339.4441,-1335.4492,-1311.892,-1302.5573,-1299.3468,-1308.1469,-1318.2407,-1316.3047,-1302.0215,-1289.7169,-1294.2976,-1311.1898,-1344.0627,-1373.8293,-1400.6333,-1429.5713,-1460.8064,-1464.3903,-1423.8966,-1403.5055,-1397.7855,-1386.7922,-1380.6981,-1372.86,-1376.3251,-1382.6622,-1408.2218,-1456.6311,-1503.8591,-1552.0234,-1571.7428,-1544.6818,-1495.2599,-1478.6322,-1462.905,-1389.2523,-1374.4667,-1412.1912,-1417.3044,-1430.8413,-1421.4799,-1430.0986,-1477.3011,-1506.7169,-1555.9501,-1576.9022,-1512.1783,-1391.0862,-1300.6506,-1283.9727,-1283.038,-1324.2312,-1384.2976,-1399.039,-1429.7446,-1475.2891,-1499.1261,-1534.7416,-1559.9716,-1551.1451,-1550.0764,-1541.6364,-1491.8488,-1452.4855,-1451.3752,-1441.0126,-1425.4451,-1431.7732,-1463.1652,-1503.5634,-1523.489,-1539.0999,-1537.7599,-1541.5559,-1587.8131,-1631.9607,-1676.7283,-1709.6565,-1710.6704,-1691.6497,-1654.7372,-1604.8779,-1501.4421,-1399.0443,-1380.5203,-1377.0686,-1362.853,-1371.5203,-1385.3269,-1407.9703,-1432.2662,-1438.4032,-1451.6239,-1478.4545,-1514.9131,-1555.2034,-1602.4292,-1666.4166,-1741.2246,-1871.4784,-1999.8401,-1995.4073,-1870.336,-1707.5736,-1599.6726,-1530.6886,-1472.8682,-1490.4688,-1523.1199,-1530.6497,-1553.7484,-1559.4578,-1530.9622,-1517.2589,-1537.1196,-1527.4467,-1510.6257
-1508.1802,-1474.5364,-1468.4443,-1481.9409,-1490.0178,-1507.3954,-1516.071,-1559.5784,-1606.1979,-1641.9565,-1709.7538,-1741.9796,-1716.1725,-1688.5964,-1663.825,-1628.1523,-1606.4265,-1602.8705,-1608.677,-1612.5558,-1601.1108,-1600.8885,-1613.7139,-1642.755,-1668.367,-1662.4712,-1685.2505,-1709.5251,-1674.3292,-1649.8655,-1667.5627,-1687.6697,-1704.8762,-1719.1799,-1705.5696,-1671.3112,-1659.9695,-1676.8643,-1687.3716,-1668.7911,-1645.1847,-1630.6528,-1629.0267,-1644.3704,-1627.4502,-1607.753,-1615.5388,-1626.8625,-1696.1285,-1769.3661,-1767.2013,-1727.2694,-1694.5519,-1715.8451,-1741.5546,-1711.6157,-1672.5656,-1664.8713,-1668.4309,-1651.6139,-1635.1964,-1626.1289,-1623.216,-1631.0497,-1625.0824,-1622.2252,-1634.3799,-1647.4514,-1655.6616,-1663.2455,-1697.2762,-1746.9779,-1799.042,-1854.8755,-1871.4707,-1856.535,-1844.2203,-1815.0261,-1813.9863,-1849.5533,-1856.0414,-1848.5713,-1841.6826,-1859.6542,-1842.8708,-1734.38,-1681.8921,-1686.0101,-1709.3712,-1807.7772,-1870.7952,-1851.4434,-1811.4127,-1794.8413,-1867.27,-2004.8936,-2094.0269,-2083.4045,-2000.8356,-1901.0374,-1837.8298,-1776.4419,-1715.185,-1709.4827,-1699.0616,-1682.8601,-1688.0204,-1676.7831,-1688.2324,-1717.2999,-1743.1353,-1767.6354,-1766.7205,-1769.0924,-1776.3573,-1786.5171,-1803.3221,-1820.0094,-1843.2797,-1834.9366,-1808.1989,-1782.6011,-1771.0865,-1810.5328,-1834.7462,-1842.7733,-1886.1299,-1908.6083,-1928.8359,-1967.7678,-1949.487,-1909.5057,-1895.4181,-1871.8646,-1848.1519,-1825.1602,-1806.5264,-1797.2606,-1777.6251,-1756.6667,-1748.1144,-1762.1353,-1781.3062,-1829.8911,-1907.0332,-1923.5292,-1903.4471,-1908.1312,-1905.6254,-1865.2754,-1843.3206,-1854.187,-1838.3892,-1834.0059,-1853.6637,-1873.132,-1886.744,-1859.2715,-1827.974,-1834.861,-1860.7682,-1880.7339,-1896.7908,-1926.7869,-1955.165,-1959.0688,-1937.5925,-1904.2261,-1881.5542,-1890.4332,-1915.2418,-1952.266,-1997.6908,-2010.476,-2038.9946,-2096.3586,-2086.5664,-2023.0345,-1975.1696,-1961.3832,-1963.9071,-1942.729,-1908.0758,-1874.7117,-1867.5055,-1905.1674,-1906.3208,-1870.3776,-1856.8884,-1859.142,-1876.8364,-1883.718,-1881.0939,-1876.7705,-1858.7703,-1849.9257,-1855.5427,-1879.2338,-1903.8696,-1922.6625,-1942.4983,-1961.854,-2014.9454,-2073.3047,-2099.0752,-2113.6663,-2102.9172,-2067.0225,-2031.8271,-1999.7543,-1985.9803,-1983.8583,-1977.8298,-1983.6833,-2012.6909,-2067.6172,-2072.92,-1994.4258,-1940.1864,-1923.3488,-1889.4886,-1865.5406,-1885.7957,-1919.3816,-1934.2999,-1964.1178,-1999.8971,-2000.0817,-1983.0721,-1976.0371,-1964.8302,-1948.413,-1948.1807,-1954.042,-1975.9467,-2005.5228,-2025.6044,-2059.7803,-2050.976,-1963.8198,-1909.1727,-1929.147,-1942.0201,-1953.4729,-1989.809,-2015.1866,-2032.3959,-2060.276,-2096.1895,-2096.33,-2084.9175,-2097.295,-2055.3914,-2005.158,-2010.5361,-2019.8667,-2090.1213,-2199.674,-2222.7034,-2225.5024,-2223.8943,-2133.805,-2045.96,-2021.513,-2002.3385,-1988.5522,-2017.8121,-2040.8798,-2007.2261,-1996.1067,-1998.7299,-1969.5999,-1956.6528,-1954.4655,-1963.7908,-1970.3251,-1991.2079,-2038.7231,-2046.0225,-2057.1938,-2081.5989,-2092.094,-2117.1475,-2136.0938,-2143.092,-2139.0212,-2137.9023,-2122.1528,-2098.5818,-2103.939,-2066.2754,-2022.4777,-2028.4742,-2018.0686,-2007.2616,-2007.0566,-1999.2657,-2022.1912,-2084.0266,-2123.1917,-2103.8699,-2062.9143,-2057.1406,-2111.0938,-2175.7668,-2240.6287,-2301.6929,-2282.1902,-2218.841,-2190.7651,-2177.2964,-2167.9053,-2172.1157,-2151.2754,-2074.491,-1987.0781,-1917.4135,-1846.3265,-1809.1432,-1843.1307,-1898.3026,-1917.3226,-1931.8701,-1946.5085,-1936.2201,-1961.4401,-1978.7827,-1968.1082,-2001.0188,-2013.6931,-2023.7802,-2024.5077,-1980.3785,-1982.7726,-1993.075,-2047.1492,-2151.246,-2151.4238,-2132.8118,-2139.3967,-2049.03,-1949.9332,-1944.3499,-1946.7734,-1929.9794,-1910.855,-1872.7755,-1858.2528,-1871.1273,-1877.5869,-1866.6902,-1840.6115,-1834.8624,-1871.8038,-1908.312,-1901.7501,-1911.0382,-1916.8025,-1844.872,-1796.0371,-1787.7933,-1742.869,-1731.2169,-1766.0754,-1798.8158,-1840.6649,-1862.2849,-1853.0044,-1839.6265,-1826.821,-1799.4099,-1751.1073,-1718.6951,-1707.4373,-1701.3154,-1708.7948,-1720.8375,-1736.7087,-1762.3602,-1783.4944,-1818.755,-1866.012,-1878.2546,-1875.7031,-1871.6486,-1856.4047,-1851.2013,-1869.7837,-1911.0433,-1910.8408,-1853.551,-1775.1525,-1707.3232,-1708.7323,-1726.0603,-1723.8687,-1734.0681,-1728.1436,-1695.918,-1668.9828,-1691.0845,-1705.2433,-1676.8479,-1670.0392,-1666.7205,-1675.2324,-1691.9526,-1674.4384,-1666.9241,-1686.5758,-1729.6619,-1781.0729,-1799.0728,-1787.0682,-1768.8987,-1765.6715,-1780.6759,-1805.461,-1803.3593,-1765.7126,-1754.7963,-1750.6227,-1730.3687,-1732.3627,-1721.3181,-1678.4963,-1659.9368,-1714.6719,-1780.5791,-1801.5785,-1825.3727,-1799.6746,-1763.8647,-1796.2909,-1750.5775,-1647.6587,-1627.0686,-1652.407,-1665.0153,-1689.7561,-1759.2081,-1805.7351,-1821.7914,-1849.3038,-1859.5249,-1883.8113,-1918.6782,-1906.6913,-1868.0575,-1830.4586,-1803.1222,-1775.1726,-1726.8932,-1721.614,-1763.8844,-1772.5583,-1762.7511,-1757.9341,-1777.1044,-1810.3523,-1814.8412,-1828.2737,-1847.5786,-1857.8982,-1881.1567,-1895.134,-1887.0974,-1893.8143,-1913.6212,-1882.1476,-1836.1011,-1832.0265,-1820.4106,-1793.9305,-1795.0605,-1805.489,-1782.4572,-1767.8801,-1789.1384,-1801.8837,-1818.6799,-1827.1058,-1802.797,-1785.7975,-1767.8909,-1738.6097,-1713.8461,-1728.4496,-1778.9801,-1794.5742,-1819.0659,-1857.6652,-1860.7369,-1879.9672,-1902.1766,-1917.2198,-1934.461,-1940.35,-1939.8273,-1928.0475,-1924.0724,-1910.196,-1903.8594,-1912.5292,-1891.798,-1873.3464,-1852.6158,-1844.0514,-1891.9633,-1966.8921,-2022.381,-2028.7645,-2006.1262,-1960.1707,-1941.4111,-1982.8464,-1976.5533,-1955.8696,-1971.0161,-1952.8798,-1953.7561,-1968.898,-1954.3326,-1945.5576,-1940.5433,-1956.4868,-1975.6992,-1970.9156,-1948.916,-1920.4656,-1928.557,-1960.0763,-1998.7346,-2062.482,-2160.004,-2277.3726,-2336.1675,-2287.3901,-2162.602,-2061.2932,-2022.4769,-1967.5746,-1930.1039,-1937.482,-1921.5808,-1895.62,-1868.2799,-1854.7188,-1868.0544,-1888.1599,-1918.1279,-1932.387,-1934.5303,-1944.1553,-1973.2819,-2044.4678,-2120.2922,-2128.2292,-2114.6833,-2162.2354,-2166.1252,-2101.0913,-2054.2664,-2031.5117,-2061.672,-2114.981,-2151.9385,-2120.4897,-2015.8776,-1957.3197,-1934.5171,-1942.9592,-1960.715,-1937.1257,-1958.6997,-1979.0054,-1959.3503,-1981.3412,-2028.5469,-2056.893,-2067.304,-2086.1084,-2095.8208,-2097.7507,-2124.8704,-2177.4194,-2258.9932,-2310.6235,-2294.7566,-2269.2827,-2259.3723,-2219.367,-2177.744,-2174.4773,-2100.535,-2022.8232,-2033.85,-2016.9819,-2008.0626,-2020.454,-2038.5857,-2085.4426,-2090.732,-2107.0945,-2121.4143,-2111.2976,-2141.044,-2152.7642,-2157.5027,-2180.9587,-2218.6216,-2274.139,-2301.8696,-2293.4019,-2269.024,-2290.5227,-2349.7097,-2360.8315,-2323.0166,-2280.0396,-2257.2717,-2262.973,-2287.3076,-2284.5706,-2250.318,-2221.099,-2208.1353,-2216.4514,-2251.218,-2299.8643,-2314.956,-2290.0105,-2218.3228,-2155.2056,-2197.7278,-2234.6106,-2217.1116,-2232.9287,-2259.7117,-2282.1953,-2300.7544,-2317.6987,-2355.6948,-2374.199,-2353.1875,-2345.2078,-2355.7542,-2345.8618,-2339.2817,-2363.3975,-2369.9136,-2330.897,-2291.7039,-2279.3938,-2300.0276,-2360.4163,-2400.6018,-2401.2725,-2425.5315,-2487.6558,-2541.293,-2501.0537,-2434.4358,-2422.3809,-2327.9446,-2229.4116,-2228.7214,-2207.482,-2217.5642,-2263.1765,-2278.8064,-2289.1687,-2298.3972,-2319.655,-2304.6572,-2279.014,-2292.7024,-2297.527,-2308.0972,-2327.8354,-2337.574,-2350.1526,-2392.197,-2444.7888,-2466.7021,-2479.54,-2477.4175,-2467.439,-2476.7273,-2491.403,-2495.8381,-2475.7432,-2440.7031,-2410.8684,-2403.4866,-2403.029,-2398.6777,-2416.187,-2418.77,-2395.9739,-2409.0513,-2444.0684,-2470.4985,-2496.6133,-2494.2266,-2473.0496,-2456.6306,-2449.043,-2488.5276,-2531.14,-2533.82,-2535.4912,-2560.6306,-2596.523,-2575.3113,-2509.7063,-2470.4355,-2465.907,-2477.8977,-2476.097,-2470.226,-2430.5842,-2363.9739,-2353.5479,-2364.964,-2386.554,-2408.2124,-2386.7532,-2381.8152,-2387.449,-2383.3271,-2410.9617,-2462.7886,-2499.2947,-2505.5593,-2529.35,-2559.3408,-2543.4963,-2507.1045,-2491.869,-2503.8584,-2504.3254,-2502.5642,-2523.641,-2518.3718,-2497.028,-2517.1917,-2544.5168,-2533.481,-2523.14,-2533.6248,-2511.9475,-2451.0203,-2418.6858,-2438.8096,-2473.234,-2505.8435,-2548.8914,-2596.658,-2638.5957,-2694.17,-2774.0698,-2825.0916,-2787.78,-2695.6182,-2579.8948,-2459.215,-2397.5913,-2370.9177,-2397.8787,-2482.3647,-2524.5923,-2581.3984,-2649.3442,-2681.4165,-2700.2104,-2661.9517,-2617.0598,-2549.7593,-2470.4778,-2479.1145,-2481.0852,-2471.8647,-2506.454,-2537.0508,-2563.0327,-2548.393,-2509.339,-2497.7812,-2467.9832,-2443.9436,-2461.0408,-2461.642,-2447.1433,-2445.6404,-2441.5386,-2434.7302,-2425.549,-2429.5457,-2451.904,-2455.1812,-2451.1912,-2463.7507,-2485.8909,-2522.2275,-2571.1575,-2614.958,-2635.9858,-2639.7168,-2624.433,-2601.9702,-2570.084,-2487.6536,-2403.8035,-2363.1309,-2343.9468,-2327.2512,-2305.447,-2320.3096,-2351.4236,-2380.3953,-2445.5242,-2485.1792,-2463.5156,-2443.669,-2436.8606,-2393.5146,-2331.884,-2291.9714,-2254.5642,-2253.8872,-2306.9167,-2344.2993,-2361.0427,-2396.753,-2428.3425,-2426.3442,-2410.1155,-2404.2056,-2401.254,-2388.1929,-2380.1887,-2404.8645,-2467.6064,-2489.692,-2463.6409,-2488.389,-2490.7861,-2440.6409,-2430.7346,-2425.646,-2416.3674,-2401.4846,-2359.3137,-2324.2764,-2300.729,-2301.9731,-2305.3716,-2295.3364,-2296.9583,-2292.6443,-2307.021,-2336.6843,-2346.7837,-2347.1853,-2342.3125,-2341.502,-2353.5251,-2389.8694,-2417.7231,-2443.602,-2503.8818,-2524.5986,-2526.7354,-2587.4011,-2649.1287,-2647.0134,-2591.9011,-2508.4072,-2401.6846,-2320.611,-2290.036,-2281.0002,-2290.7664,-2315.701,-2341.873,-2372.437,-2428.5925,-2486.1882,-2548.1045,-2632.0881,-2668.3167,-2649.1301,-2610.6118,-2574.6785,-2539.0696,-2478.1658,-2435.5288,-2419.7026,-2412.3618,-2399.2026,-2379.7944,-2397.8765,-2404.8452,-2388.7253,-2393.4482,-2398.9082,-2419.3416,-2426.4944,-2423.9663,-2474.1013,-2520.1226,-2542.0522,-2569.4387,-2590.1895,-2602.6826,-2591.8052,-2581.926,-2620.3875,-2683.8032,-2679.6467,-2610.411,-2587.2974,-2595.0872,-2588.3428,-2618.5483,-2687.3875,-2691.2476,-2599.8955,-2533.827,-2490.7861,-2417.8914,-2395.428,-2402.7864,-2406.9558,-2448.4624,-2471.248,-2474.8394,-2503.612,-2522.3618,-2536.0234,-2572.2483,-2621.3323,-2645.201,-2623.1904,-2599.426,-2597.8572,-2583.8901,-2553.4868,-2544.4075,-2552.4941,-2562.4165,-2585.5667,-2615.0208,-2642.7158,-2665.7363,-2680.1104,-2698.1243,-2738.7388,-2774.239,-2777.3066,-2800.994,-2830.725,-2799.2227,-2761.4746,-2761.6523,-2741.05,-2704.4697,-2720.0232,-2761.6594,-2790.3726,-2811.889,-2812.7778,-2820.5706,-2821.8215,-2787.7773,-2783.3384,-2801.8738,-2797.8054,-2808.011,-2847.8184,-2866.8833,-2873.7212,-2926.0903,-2968.8335,-2963.1194,-2955.5903,-2943.6387,-2939.7559,-2954.4211,-2951.4768,-2929.1074,-2927.542,-2972.851,-3004.976,-2980.4111,-2961.4556,-2950.0857,-2914.3228,-2881.6582,-2854.5881,-2865.5928,-2899.2686,-2890.5776,-2907.9675,-2938.6602,-2925.2563,-2935.3308,-2942.294,-2940.104,-2986.317,-3026.9053,-3039.5793,-3058.5642,-3076.5107,-3054.572,-2995.9536,-2952.4883,-2928.6667,-2927.9192,-2950.794,-2978.3389,-3011.7593,-3022.923,-3026.9426,-3057.077,-3077.8855,-3060.4197,-3020.6223,-3023.8113,-3069.8535,-3090.9875,-3089.1523,-3083.775,-3100.8425,-3167.5664,-3220.6638,-3190.8086,-3123.1147,-3047.998,-2982.5635,-2981.7456,-2984.519,-2979.8003,-2996.387,-2989.2202,-3006.0044,-3026.4263,-3004.9705,-2985.6392,-2978.5718,-3003.6926,-3002.5698,-2946.4824,-2928.039,-2912.451,-2876.1084,-2886.7463,-2929.9521,-2965.8914,-2956.566,-2924.4841,-2914.5757,-2909.3013,-2912.8362,-2913.5757,-2905.7388,-2909.2058,-2905.9497,-2890.6091,-2876.7659,-2868.1648,-2873.2097,-2873.6726,-2851.3494,-2842.6738,-2840.8914,-2838.0503,-2876.9846,-2929.6365,-2964.1055,-2996.956,-3016.0703,-3002.0452,-2965.082,-2905.5513,-2843.8418,-2825.3887,-2810.4988,-2788.809,-2805.767,-2831.5527,-2870.4177,-2917.518,-2927.5645,-2926.3079,-2898.1125,-2816.572,-2751.5613,-2731.6604,-2715.9753,-2715.4663,-2750.227,-2776.662,-2767.4119,-2760.9612,-2772.9082,-2777.5864,-2783.0125,-2780.2012,-2771.603,-2783.6003,-2785.8767,-2787.5195,-2799.3696,-2806.9858,-2826.0645,-2855.583,-2912.0928,-2953.6099,-2942.093,-2960.5864,-3000.636,-2968.6572,-2927.5784,-2970.2473,-2981.2607,-2916.8164,-2873.9065,-2808.0288,-2742.7695,-2722.2766,-2689.3518,-2702.7056,-2740.8955,-2738.5037,-2753.9102,-2780.7058,-2787.6792,-2778.9856,-2768.4238,-2771.582,-2777.2336,-2798.6729,-2849.1943,-2904.5562,-2937.3765,-2966.0605,-3009.6692,-3032.2168,-3029.2104,-2990.333,-2902.7383,-2812.842,-2731.6746,-2686.279,-2732.3096,-2822.04,-2854.968,-2824.832,-2800.6616,-2798.635,-2797.3232,-2789.2102,-2761.0327,-2739.197,-2752.8943,-2761.6575,-2766.496,-2789.3555,-2808.5298,-2829.1758,-2843.753,-2860.7434,-2905.0286,-2934.7798,-2931.87,-2939.0508,-2958.6707,-2971.5068,-2957.653,-2896.8396,-2862.747,-2854.1514,-2813.6355,-2807.6555,-2821.1785,-2831.5872,-2853.7168,-2860.5657,-2890.5771,-2926.7214,-2936.2527,-2931.3152,-2908.4033,-2914.8042,-2957.449,-2948.613,-2881.1472,-2853.031
-2857.5134,-2843.8894,-2842.2239,-2872.0005,-2903.4006,-2882.243,-2854.8892,-2853.7869,-2855.4675,-2907.7666,-2956.4622,-2958.836,-2927.3018,-2864.1118,-2852.2766,-2876.2588,-2904.185,-2936.8328,-2937.373,-2934.4504,-2967.8914,-3039.7114,-3071.926,-3026.946,-2952.4368,-2873.1062,-2821.0242,-2827.8982,-2916.5637,-3000.645,-2997.5837,-2963.3767,-2917.9746,-2869.498,-2835.1443,-2812.4531,-2821.583,-2847.355,-2851.69,-2855.437,-2879.9456,-2884.0098,-2885.1772,-2911.0793,-2917.603,-2910.4802,-2895.8962,-2862.1526,-2847.0708,-2862.5684,-2886.873,-2909.6624,-2930.0552,-2932.3804,-2909.1409,-2903.552,-2924.9941,-2937.9802,-2944.436,-2947.7664,-2927.4712,-2901.565,-2916.6729,-2959.1328,-2980.0437,-2968.7434,-2953.48,-2948.9648,-2938.1829,-2922.9211,-2919.4094,-2932.6414,-2947.026,-2978.64,-3017.9812,-3004.7998,-2994.3848,-2998.1528,-2980.2183,-2979.5063,-2955.145,-2931.996,-2930.8206,-2915.3018,-2953.8088,-3000.927,-3019.474,-3052.7434,-3043.851,-3003.7432,-2964.031,-2907.6929,-2892.8018,-2917.468,-2916.6934,-2920.3516,-2928.1711,-2917.6228,-2909.5151,-2892.7256,-2887.8425,-2901.134,-2906.2725,-2903.9163,-2901.8452,-2909.995,-2919.2773,-2923.9478,-2929.642,-2948.9067,-2977.4148,-3002.0186,-3021.1829,-3030.496,-3029.6587,-2997.236,-2963.1377,-2957.1812,-2949.0398,-2947.7393,-2947.6375,-2957.4941,-2977.3516,-2970.3508,-2973.0032,-2985.4907,-2973.3662,-2950.3916,-2938.4365,-2951.899,-2969.009,-2998.8386,-3056.6277,-3112.712,-3145.9707,-3128.0183,-3076.393,-3022.259,-2983.3625,-2983.902,-2984.0002,-2995.1755,-3057.4768,-3131.9172,-3139.4448,-3055.6243,-2988.423,-2923.0032,-2832.113,-2823.8188,-2836.7444,-2848.221,-2891.8672,-2911.2808,-2944.3782,-2966.258,-2950.3816,-2947.0051,-2937.6125,-2933.6565,-2939.9082,-2946.9836,-2949.4253,-2944.2056,-2962.3599,-2974.778,-2985.0251,-3015.1062,-3043.9453,-3060.8516,-3055.7283,-3078.9043,-3083.0085,-3008.3877,-2972.968,-2970.3582,-2928.7437,-2911.2021,-2932.3025,-2941.7363,-2946.42,-2990.1868,-3059.5422,-3115.1172,-3135.8335,-3100.346,-3048.6213,-2995.3853,-2920.9746,-2872.6345,-2870.2463,-2901.8625,-2923.31,-2929.472,-2971.166,-3005.7422,-3047.2468,-3102.1929,-3081.9229,-3044.4094,-3025.2366,-2966.5994,-2935.4902,-2938.7737,-2908.6619,-2913.9243,-2948.5718,-2944.2546,-2958.2212,-2989.6858,-3001.1267,-3009.7312,-3020.3394,-3033.4592,-3045.3433,-3049.3914,-3041.6812,-3022.351,-2982.1577,-2961.6611,-2979.8293,-2986.932,-2995.6155,-2981.9663,-2967.3728,-3008.1587,-3055.3755,-3114.5508,-3142.8057,-3124.7207,-3143.5679,-3165.357,-3139.162,-3072.4314,-3011.7812,-2982.547,-2967.089,-2957.4456,-2952.1348,-2966.9036,-2981.2878,-2978.9553,-2988.0684,-3025.4177,-3048.066,-3025.5854,-3001.5417,-2974.192,-2942.44,-2933.5854,-2940.0068,-2945.7295,-2946.3198,-2958.8613,-2980.5693,-3008.7034,-3045.1968,-3077.2327,-3093.8408,-3093.8103,-3080.2332,-3045.687,-3036.7178,-3079.0237,-3119.5508,-3146.4824,-3161.5178,-3152.8706,-3159.1147,-3164.8042,-3104.5203,-3050.1267,-3035.0752,-3006.3716,-3004.983,-3013.4468,-2999.8774,-2990.9211,-2990.9644,-3010.3296,-3019.1802,-3005.7644,-3008.108,-3035.9512,-3052.4978,-3046.1143,-3060.4827,-3075.2275,-3065.4954,-3041.2507,-3014.6125,-3014.224,-3021.7188,-3041.2659,-3076.604,-3112.3433,-3151.4019,-3170.156,-3175.947,-3173.1292,-3177.1543,-3182.639,-3177.43,-3197.9763,-3164.4275,-3079.6606,-3038.436,-3000.4912,-2979.713,-2995.0552,-3005.389,-3023.0156,-3048.9639,-3065.4736,-3068.5261,-3059.0332,-3036.4902,-3031.8179,-3083.752,-3151.4026,-3161.84,-3126.7698,-3108.9653,-3078.0295,-3033.5422,-3031.6707,-3027.6887,-3038.1807,-3071.1685,-3078.458,-3105.235,-3136.912,-3137.678,-3118.3167,-3098.3184,-3096.4885,-3097.3225,-3105.3828,-3099.9958,-3084.0623,-3083.4148,-3083.101,-3091.099,-3095.809,-3096.6257,-3096.25,-3087.3242,-3095.8594,-3107.7224,-3112.8386,-3134.6855,-3179.0825,-3222.8752,-3239.166,-3257.0312,-3282.6426,-3283.0293,-3231.1348,-3131.7751,-3097.2178,-3114.3467,-3102.1943,-3138.8394,-3179.343,-3186.289,-3196.353,-3154.6306,-3124.5803,-3107.476,-3062.624,-3063.7373,-3070.0479,-3053.3186,-3051.8586,-3069.0405,-3095.5547,-3110.2183,-3117.3274,-3115.714,-3127.588,-3167.6614,-3197.4634,-3211.0347,-3207.9907,-3187.0754,-3173.9314,-3171.6187,-3165.4717,-3155.125,-3149.6484,-3161.3337,-3172.0579,-3170.1511,-3182.9993,-3192.2915,-3189.0745,-3197.053,-3197.1316,-3184.2847,-3172.8184,-3160.8381,-3153.0994,-3160.4253,-3179.2166,-3193.5613,-3186.996,-3168.3457,-3158.4915,-3147.2595,-3151.3337,-3187.109,-3221.9094,-3249.0913,-3276.5134,-3287.851,-3264.8425,-3242.4988,-3233.5571,-3211.9658,-3203.0417,-3176.2861,-3170.4111,-3242.513,-3270.8792,-3276.8481,-3308.4207,-3287.2566,-3266.5938,-3252.0737,-3208.3528,-3198.6367,-3217.0305,-3240.088,-3251.4883,-3220.163,-3193.8936,-3196.1296,-3189.4011,-3174.9102,-3168.7805,-3163.9634,-3158.3015,-3179.3164,-3225.2205,-3248.4182,-3248.092,-3259.8828,-3269.7036,-3262.281,-3250.709,-3228.4392,-3220.8394,-3233.7397,-3226.0127,-3216.928,-3222.27,-3245.2998,-3285.1072,-3302.277,-3311.4998,-3319.6094,-3315.6455,-3313.2766,-3294.3396,-3301.6636,-3353.6416,-3380.7617,-3376.7473,-3362.091,-3354.819,-3329.6292,-3259.4749,-3233.6807,-3243.589,-3222.1423,-3222.1174,-3223.9124,-3215.3406,-3219.1836,-3200.1567,-3197.2075,-3193.793,-3177.7844,-3194.8516,-3208.8608,-3229.0596,-3251.2546,-3268.7786,-3287.5159,-3286.8843,-3307.9097,-3330.2747,-3342.122,-3372.4993,-3406.9058,-3434.3667,-3419.0173,-3378.3132,-3358.4368,-3346.5999,-3296.6426,-3212.705,-3183.5972,-3211.6665,-3245.8176,-3274.0483,-3279.1167,-3278.914,-3286.5676,-3301.0369,-3316.3198,-3314.7988,-3308.4756,-3296.558,-3276.7603,-3258.5164,-3257.5671,-3289.8577,-3333.709,-3395.126,-3464.8108,-3485.2432,-3479.2915,-3493.6614,-3499.8108,-3453.1038,-3355.6187,-3283.4011,-3259.991,-3227.0815,-3223.45,-3239.3254,-3221.7085,-3231.0466,-3241.1433,-3242.7146,-3267.3494,-3260.7776,-3258.7334,-3276.3354,-3270.051,-3264.1365,-3255.2915,-3248.9612,-3278.5212,-3316.532,-3329.9202,-3336.4546,-3353.629,-3376.2227,-3402.8164,-3427.113,-3449.0583,-3467.226,-3469.6292,-3483.8403,-3507.1086,-3476.3816,-3402.0972,-3343.8635,-3303.2954,-3269.2715,-3237.289,-3223.4438,-3253.7659,-3260.6804,-3232.037,-3245.1704,-3282.9075,-3311.7263,-3333.7905,-3368.216,-3413.1514,-3422.6853,-3399.52,-3401.6423,-3465.2942,-3534.0793,-3556.8992,-3564.4646,-3536.8093,-3454.1792,-3402.774,-3370.5322,-3303.285,-3271.4429,-3252.8562,-3252.3538,-3299.8108,-3308.0552,-3320.779,-3342.9543,-3330.5974,-3333.4558,-3322.2593,-3295.64,-3286.5173,-3292.318,-3302.914,-3312.5693,-3329.4663,-3323.2498,-3316.1785,-3335.0627,-3357.6328,-3395.841,-3426.511,-3432.8467,-3439.6235,-3456.0452,-3471.3103,-3460.3237,-3431.825,-3399.8323,-3355.57,-3323.0293,-3311.5474,-3289.3943,-3289.4548,-3313.5547,-3302.4683,-3308.41,-3347.1348,-3371.9343,-3404.754,-3436.9182,-3453.4412,-3460.0178,-3459.4856,-3456.6829,-3448.304,-3433.8733,-3407.7263,-3389.3472,-3379.8032,-3374.989,-3397.9253,-3430.6084,-3445.411,-3439.596,-3444.2944,-3457.314,-3448.779,-3434.038,-3414.7725,-3415.0706,-3455.0186,-3493.337,-3513.8977,-3524.035,-3514.8604,-3496.6753,-3457.572,-3381.3384,-3358.7356,-3364.727,-3324.999,-3344.6956,-3379.733,-3372.456,-3391.8958,-3394.0098,-3394.9626,-3412.3936,-3413.5847,-3421.3977,-3431.14,-3457.2341,-3489.9321,-3509.7332,-3502.6887,-3462.0647,-3450.1262,-3449.5725,-3445.2761,-3453.8223,-3432.0898,-3416.6965,-3441.5464,-3466.7178,-3478.4214,-3496.2488,-3519.0466,-3545.8872,-3575.5574,-3544.7185,-3483.545,-3449.6934,-3424.8662,-3429.104,-3429.5356,-3430.7017,-3450.1611,-3454.7026,-3470.3992,-3467.1602,-3465.0786,-3488.9104,-3475.2832,-3458.1025,-3461.9556,-3466.7764,-3461.2314,-3456.59,-3485.313,-3495.3464,-3487.2336,-3525.1047,-3559.0076,-3549.525,-3538.0864,-3535.7698,-3523.1812,-3509.915,-3534.717,-3586.91,-3614.9194,-3606.457,-3589.7217,-3565.4988,-3494.4465,-3444.4492,-3463.899,-3472.7485,-3486.3984,-3522.1526,-3567.208,-3625.0427,-3652.142,-3662.9543,-3638.3196,-3587.7114,-3569.2832,-3521.0266,-3477.9834,-3494.6438,-3494.271,-3485.5918,-3507.664,-3543.9087,-3550.281,-3521.2253,-3508.4358,-3486.2544,-3464.8403,-3477.9414,-3482.8125,-3487.7925,-3499.6294,-3521.872,-3557.6292,-3574.851,-3573.5083,-3555.3706,-3541.5225,-3531.652,-3491.388,-3462.3691,-3500.8948,-3579.076,-3617.0305,-3601.4092,-3581.8296,-3566.4172,-3552.295,-3544.9453,-3533.7856,-3529.0005,-3561.7947,-3600.398,-3599.8875,-3594.3674,-3565.675,-3524.4595,-3545.638,-3570.9788,-3591.7305,-3622.2617,-3608.4,-3596.9832,-3586.1082,-3573.9558,-3601.7017,-3622.6182,-3619.1453,-3596.9973,-3576.175,-3560.9998,-3542.5322,-3559.9048,-3585.5396,-3587.2544,-3588.3535,-3602.127,-3634.0679,-3693.7246,-3755.643,-3733.9067,-3669.6833,-3638.018,-3581.1707,-3542.0195,-3549.0781,-3542.8853,-3556.3665,-3567.6504,-3555.7822,-3545.9434,-3525.4678,-3529.8093,-3555.9766,-3574.4268,-3561.3965,-3530.4688,-3561.1223,-3610.8057,-3625.1755,-3664.8918,-3769.9014,-3843.2983,-3797.8572,-3726.5886,-3667.095,-3593.809,-3542.0593,-3544.542,-3586.047,-3600.4343,-3595.5574,-3590.8093,-3575.8872,-3567.0247,-3581.3525,-3610.3135,-3605.8774,-3594.1855,-3578.4634,-3541.26,-3544.0378,-3567.512,-3594.24,-3625.9944,-3636.2124,-3636.7004,-3627.0247,-3631.83,-3649.5984,-3657.3247,-3680.7532,-3704.0789,-3695.9565,-3673.4172,-3678.0374,-3699.6836,-3717.5881,-3741.18,-3741.0486,-3714.4233,-3712.2754,-3774.273,-3813.4087,-3734.3357,-3656.008,-3648.1208,-3630.601,-3603.7803,-3594.6943,-3592.1223,-3601.457,-3606.9714,-3603.1,-3604.385,-3586.4316,-3568.6123,-3569.3816,-3560.5928,-3555.1533,-3561.4424,-3583.921,-3617.1052,-3634.801,-3653.9978,-3681.936,-3703.5403,-3716.3264,-3731.115,-3769.8965,-3795.7605,-3778.5923,-3759.929,-3756.4001,-3752.464,-3713.3784,-3649.8064,-3625.6252,-3637.13,-3652.387,-3658.9546,-3670.2053,-3707.145,-3751.27,-3783.1257,-3782.6619,-3738.9734,-3683.9556,-3653.8457,-3630.8792,-3616.7964,-3633.021,-3637.5913,-3647.668,-3658.7498,-3642.617,-3645.095,-3636.633,-3619.6753,-3624.7693,-3635.2168,-3654.4412,-3673.4648,-3688.8164,-3686.898,-3702.306,-3746.3252,-3758.9514,-3751.2014,-3751.9495,-3780.7446,-3814.9543,-3813.4666,-3790.366,-3757.6523,-3742.633,-3757.3633,-3786.506,-3806.846,-3787.9797,-3756.6475,-3729.821,-3682.1565,-3630.6367,-3621.1323,-3652.7654,-3687.6677,-3714.6924,-3729.959,-3726.4443,-3712.9648,-3702.7927,-3697.5532,-3705.3835,-3727.6274,-3729.3188,-3724.0742,-3729.492,-3719.1924,-3708.327,-3713.1853,-3739.4517,-3784.8027,-3810.7954,-3809.1567,-3821.1926,-3816.7349,-3760.639,-3728.651,-3719.427,-3713.7146,-3745.037,-3781.8198,-3808.7603,-3801.8176,-3774.2253,-3763.5496,-3742.1055,-3715.5415,-3691.397,-3694.555,-3730.297,-3733.5752,-3698.8308,-3680.4587,-3703.4773,-3734.5352,-3766.5298,-3809.6829,-3835.8657,-3862.9504,-3934.5256,-3990.7312,-3946.9045,-3873.0127,-3823.516,-3777.2432,-3744.0623,-3686.686,-3647.256,-3665.4915,-3690.7224,-3727.7112,-3736.7979,-3732.8296,-3754.3218,-3759.246,-3774.6616,-3791.1436,-3791.486,-3807.1287,-3816.7869,-3803.9458,-3785.293,-3780.572,-3775.6997,-3765.6052,-3783.43,-3825.184,-3851.6294,-3864.317,-3887.7927,-3885.3398,-3856.351,-3861.3176,-3877.2214,-3868.4233,-3863.8818,-3886.2424,-3917.289,-3929.7056,-3917.725,-3866.3657,-3795.9768,-3745.6921,-3720.3599,-3722.8196,-3724.6172,-3732.4702,-3779.3428,-3853.6956,-3891.926,-3884.7466,-3935.2666,-3945.5146,-3868.3455,-3846.9792,-3812.2598,-3759.4795,-3742.0396,-3743.0308,-3772.7783,-3766.9456,-3763.335,-3777.5098,-3776.1587,-3793.721,-3803.749,-3820.2031,-3834.2837,-3828.8413,-3825.1338,-3808.858,-3797.2344,-3790.7573,-3797.335,-3830.3054,-3868.6318,-3888.8755,-3878.0442,-3882.6167,-3892.2864,-3856.4175,-3836.5386,-3860.3354,-3881.998,-3902.3066,-3909.2742,-3891.111,-3881.594,-3885.6519,-3889.908,-3886.4653,-3868.4114,-3867.064,-3888.5188,-3883.339,-3867.3455,-3867.8455,-3858.6462,-3844.6414,-3835.0276,-3852.382,-3893.1924,-3902.7258,-3891.413,-3884.1123,-3883.9062,-3892.4294,-3902.9626,-3912.3792,-3902.1128,-3902.3723,-3929.9097,-3905.5432,-3845.2917,-3830.5298,-3832.9653,-3835.5479,-3833.5505,-3815.5225,-3828.1602,-3855.8694,-3891.329,-3949.9336,-3997.7688,-4032.2554,-4019.3494,-3971.933,-3950.0947,-3919.4844,-3881.2542,-3886.2197,-3901.1726,-3895.4124,-3918.9155,-3950.5942,-3951.4426,-3940.3042,-3900.4624,-3863.3845,-3844.943,-3820.8616,-3819.3835,-3835.915,-3854.3242,-3867.012,-3877.0234,-3905.7869,-3924.9338,-3924.1306,-3941.893,-3965.6802,-3968.7249,-3986.4438,-4056.352,-4147.8823,-4188.761,-4152.5923,-4054.6387,-3953.7761,-3906.7827,-3865.5115,-3850.5334,-3876.0798,-3860.8335,-3878.559,-3943.7139,-3963.1523,-3982.6714,-4016.4648,-4036.9175,-4097.642,-4168.0825,-4131.302,-4060.1707,-4061.8533,-4105.1523,-4234.619,-4382.2085,-4462.0283,-4531.62,-4472.2764,-4283.824,-4099.1196,-3917.1023,-3789.4275,-3751.2046,-3778.502,-3803.177,-3826.799,-3872.3228,-3873.666,-3862.174,-3846.837,-3859.1777,-3915.6597,-3916.2507,-3891.5383,-3918.145,-4001.346,-4122.9053,-4252.9883,-4326.7285,-4353.886,-4355.131,-4223.0225,-4023.5293,-3906.2117,-3854.7158,-3841.0122,-3875.7612,-3922.6538
-3936.453,-3936.1843,-3933.3142,-3940.8713,-3958.7954,-3979.344,-3982.8914,-3952.2366,-3942.039,-3924.2192,-3957.5771,-4081.889,-4119.638,-4111.36,-4127.853,-4098.4604,-4054.2542,-4028.662,-4040.7708,-4051.027,-4020.5645,-3987.5303,-3945.9316,-3906.3386,-3886.2646,-3866.2349,-3851.985,-3858.841,-3869.1519,-3889.4773,-3960.7837,-4030.3433,-4056.3892,-4077.359,-4079.6658,-4059.6025,-4059.8254,-4085.62,-4111.8867,-4124.223,-4106.921,-4075.2683,-4075.053,-4062.1648,-3985.6511,-3926.654,-3904.317,-3845.138,-3798.427,-3810.305,-3858.7847,-3925.6592,-3951.5234,-3972.4216,-4019.7922,-4034.117,-4040.0884,-4037.5498,-4024.9844,-4031.142,-4011.518,-3973.089,-3955.0103,-3962.5815,-3972.6794,-3944.2122,-3915.544,-3920.6274,-3919.5564,-3914.7307,-3946.1035,-4001.9277,-4065.442,-4147.1465,-4203.8145,-4205.786,-4179.0625,-4135.7534,-4088.8699,-4048.794,-4040.6475,-4048.516,-4022.7292,-3989.458,-3956.8696,-3929.701,-3934.3552,-3945.3125,-3970.202,-4000.957,-3988.324,-3987.4192,-4043.3992,-4077.5273,-4078.3137,-4093.2007,-4092.2415,-4075.3591,-4058.4697,-4035.147,-4034.697,-4018.5847,-3974.16,-3964.686,-3984.8975,-4043.7769,-4099.246,-4110.123,-4132.9546,-4120.616,-4082.7217,-4067.613,-3996.7952,-3945.0298,-3984.8384,-3990.342,-3974.5747,-4005.4578,-4033.8896,-4061.56,-4077.7395,-4058.873,-4028.2698,-4003.3992,-3977.3792,-3946.1426,-3954.4375,-3966.5972,-3965.361,-3995.3809,-4009.338,-4013.4832,-4023.3398,-4044.1284,-4103.552,-4156.138,-4184.5024,-4191.998,-4202.039,-4229.3394,-4285.916,-4386.4277,-4383.5034,-4298.252,-4237.401,-4089.8904,-3985.747,-3963.5452,-3903.458,-3982.643,-4091.542,-4134.384,-4248.9746,-4284.5615,-4242.644,-4177.1426,-4096.0195,-4121.494,-4143.2954,-4089.7239,-4041.449,-4014.824,-3973.319,-3919.257,-3910.7952,-3925.4553,-3961.651,-4009.103,-4033.5718,-4060.9917,-4083.6338,-4093.3254,-4082.5852,-4071.56,-4061.6443,-4026.3298,-4018.2441,-4021.3047,-4015.8508,-4049.1274,-4088.4404,-4125.8613,-4160.545,-4149.111,-4148.5435,-4168.149,-4116.153,-4048.8367,-4033.494,-4002.3916,-3982.2744,-4017.9238,-4037.7837,-4031.9146,-4020.729,-4007.738,-4013.387,-4023.7664,-4047.535,-4069.5054,-4075.384,-4110.488,-4148.1772,-4157.827,-4159.0513,-4152.3306,-4167.265,-4220.7,-4244.378,-4209.529,-4167.52,-4113.5425,-4051.9353,-4057.7068,-4104.4204,-4090.0608,-4027.4312,-4008.4358,-4036.11,-4048.8303,-4052.0193,-4051.8745,-4054.7014,-4098.951,-4125.3345,-4099.253,-4088.6326,-4101.0103,-4110.722,-4126.62,-4142.4854,-4152.421,-4175.751,-4176.43,-4154.5566,-4187.0444,-4249.527,-4267.3994,-4236.541,-4206.524,-4163.606,-4058.3577,-3969.5476,-3964.5188,-3984.3162,-3998.5796,-4028.717,-4045.4546,-4042.7183,-4052.4934,-4066.0579,-4084.0044,-4098.9395,-4109.3438,-4116.557,-4108.695,-4094.7817,-4084.58,-4113.9204,-4151.7534,-4169.4395,-4206.6274,-4229.425,-4242.1313,-4291.439,-4327.5137,-4286.3867,-4267.056,-4297.918,-4259.9727,-4214.071,-4143.3154,-4054.4407,-4049.2737,-4032.4558,-4050.2297,-4060.1934,-4026.833,-4126.1187,-4228.9136,-4334.1943,-4495.6714,-4534.546,-4433.123,-4207.374,-4043.756,-3997.8855,-3932.384,-3959.4592,-3983.146,-3996.2146,-4075.9065,-4069.0564,-4077.2173,-4094.6885,-4070.7969,-4072.1443,-4041.28,-4037.3396,-4042.9045,-4042.8826,-4062.6646,-4076.8271,-4152.0366,-4209.918,-4208.087,-4211.806,-4219.5063,-4234.0054,-4224.7993,-4204.798,-4180.1943,-4143.3726,-4122.54,-4109.5234,-4117.3613,-4134.2207,-4140.1763,-4146.8477,-4149.774,-4147.4204,-4123.427,-4100.215,-4099.1177,-4096.7812,-4105.176,-4123.9785,-4144.808,-4155.643,-4152.844,-4165.6304,-4172.7637,-4174.095,-4184.3228,-4177.8936,-4177.2627,-4185.7476,-4189.839,-4213.718,-4248.531,-4272.451,-4268.367,-4262.0166,-4258.659,-4186.0923,-4113.726,-4110.579,-4122.2935,-4155.7173,-4174.562,-4187.2905,-4260.503,-4320.9126,-4282.2476,-4182.5835,-4105.3657,-4042.599,-3992.8079,-3975.5835,-3982.0564,-4008.7383,-4017.125,-4035.6746,-4065.58,-4067.6094,-4077.8823,-4090.0283,-4104.3013,-4124.2896,-4129.428,-4139.4277,-4166.043,-4192.1504,-4198.6646,-4205.466,-4209.613,-4181.131,-4156.1753,-4157.5386,-4161.5977,-4183.611,-4232.3896,-4260.1875,-4257.151,-4234.085,-4185.719,-4154.602,-4135.422,-4116.5264,-4150.875,-4210.572,-4252.3325,-4278.022,-4274.3687,-4230.2305,-4162.002,-4114.192,-4081.479,-4062.4812,-4079.269,-4104.5684,-4142.294,-4182.7266,-4198.241,-4224.3257,-4254.5347,-4245.3745,-4218.454,-4222.132,-4273.578,-4329.925,-4329.578,-4297.172,-4263.4097,-4201.6025,-4153.988,-4164.9297,-4201.0312,-4242.5312,-4251.1675,-4241.587,-4262.6333,-4222.688,-4146.7627,-4130.5024,-4102.4683,-4090.7883,-4118.914,-4128.3667,-4147.1226,-4159.1577,-4168.337,-4181.151,-4172.3394,-4172.689,-4166.484,-4149.1816,-4130.6562,-4130.0054,-4155.053,-4142.9414,-4150.9873,-4213.098,-4250.5747,-4253.6753,-4238.312,-4268.2617,-4320.5205,-4299.9663,-4279.007,-4288.5923,-4268.723,-4240.927,-4231.102,-4241.7905,-4242.1553,-4198.5913,-4163.759,-4165.8784,-4175.02,-4192.3867,-4200.037,-4186.944,-4179.48,-4193.7935,-4227.0493,-4256.483,-4280.7993,-4308.4854,-4341.8115,-4323.3076,-4239.771,-4196.869,-4186.3936,-4177.722,-4180.9766,-4208.374,-4281.4463,-4333.315,-4368.145,-4374.289,-4320.71,-4275.2183,-4210.8916,-4129.373,-4096.4766,-4100.849,-4111.071,-4135.5605,-4187.7256,-4226.05,-4235.875,-4224.7,-4196.7446,-4193.395,-4232.275,-4272.817,-4273.3447,-4263.4966,-4302.037,-4397.657,-4442.8984,-4389.92,-4348.649,-4286.1104,-4214.5664,-4229.9346,-4227.4336,-4201.444,-4194.521,-4190.032,-4217.8843,-4220.2866,-4204.6494,-4202.4004,-4195.4595,-4196.449,-4187.9043,-4196.3057,-4211.137,-4221.893,-4251.602,-4269.3545,-4292.5566,-4321.2017,-4360.483,-4409.8955,-4419.8535,-4419.8555,-4448.0386,-4519.613,-4597.2715,-4573.0376,-4474.2617,-4420.6235,-4335.1367,-4193.6133,-4173.812,-4175.929,-4133.6074,-4169.3604,-4170.856,-4161.916,-4197.713,-4196.7065,-4204.721,-4214.5713,-4237.345,-4273.0244,-4293.4805,-4334.127,-4360.0913,-4380.1343,-4396.261,-4395.1636,-4425.07,-4435.768,-4399.974,-4389.431,-4384.741,-4317.4795,-4218.5967,-4184.0137,-4193.3457,-4179.9653,-4195.663,-4204.3506,-4187.143,-4204.707,-4200.1816,-4202.719,-4222.154,-4216.255,-4226.2827,-4229.01,-4240.215,-4270.1396,-4302.9146,-4362.9263,-4410.5044,-4430.914,-4450.262,-4477.378,-4460.498,-4425.5215,-4448.556,-4409.397,-4354.3887,-4388.7876,-4370.3115,-4338.7383,-4392.7964,-4482.856,-4546.5464,-4498.5996,-4369.422,-4268.2944,-4214.808,-4178.0967,-4161.9375,-4185.554,-4214.4844,-4239.7314,-4293.6714,-4343.7183,-4381.305,-4395.1855,-4357.892,-4322.3315,-4273.3965,-4242.5024,-4274.0806,-4293.5923,-4320.0728,-4344.9336,-4341.6484,-4342.9663,-4352.097,-4379.371,-4389.8896,-4372.375,-4355.13,-4346.6484,-4333.418,-4304.784,-4285.76,-4272.0156,-4271.9634,-4278.952,-4266.343,-4261.682,-4276.7725,-4284.8135,-4285.858,-4316.4697,-4343.1045,-4364.1377,-4420.2446,-4475.6265,-4549.9673,-4600.6196,-4567.9966,-4529.957,-4506.467,-4468.1943,-4401.462,-4336.5327,-4309.122,-4292.684,-4275.956,-4262.051,-4264.3223,-4266.6787,-4263.918,-4295.2534,-4340.3794,-4366.807,-4368.818,-4357.3633,-4348.5054,-4345.6143,-4339.9976,-4329.021,-4338.8423,-4357.4883,-4367.31,-4392.6367,-4432.529,-4439.5815,-4416.5063,-4421.6426,-4426.237,-4402.8984,-4371.954,-4342.952,-4345.134,-4363.277,-4397.65,-4455.722,-4511.9873,-4572.827,-4598.9087,-4568.1626,-4511.1143,-4440.6206,-4370.1,-4309.906,-4305.1973,-4351.8955,-4384.3066,-4393.914,-4383.1436,-4377.5303,-4381.53,-4383.938,-4450.3633,-4526.6265,-4510.372,-4491.503,-4546.7417,-4556.4175,-4465.27,-4429.2227,-4421.3613,-4341.6455,-4297.8604,-4301.42,-4335.019,-4367.288,-4364.014,-4379.533,-4363.4707,-4352.047,-4370.965,-4363.298,-4356.0103,-4337.695,-4336.8413,-4339.16,-4345.0205,-4402.6826,-4447.7876,-4508.313,-4600.7275,-4626.106,-4611.3516,-4593.8535,-4513.931,-4461.575,-4482.6445,-4486.043,-4529.075,-4564.2876,-4529.7627,-4492.658,-4443.666,-4441.1816,-4467.0967,-4426.904,-4379.4204,-4367.4395,-4330.4756,-4295.881,-4334.572,-4358.3545,-4350.9297,-4368.3574,-4404.246,-4456.869,-4471.33,-4482.1226,-4515.581,-4551.509,-4602.457,-4596.833,-4573.2153,-4574.487,-4542.2803,-4536.896,-4642.825,-4759.0645,-4739.213,-4679.2803,-4625.0347,-4519.578,-4450.25,-4422.377,-4410.906,-4401.5176,-4381.253,-4392.821,-4392.725,-4369.4517,-4339.2256,-4313.1904,-4314.442,-4313.877,-4329.0576,-4379.011,-4433.037,-4436.3296,-4413.123,-4417.1025,-4417.0137,-4436.9473,-4460.9526,-4475.2744,-4516.438,-4525.8516,-4522.4775,-4556.674,-4591.3643,-4586.494,-4540.885,-4515.479,-4501.192,-4445.6025,-4390.071,-4364.858,-4370.6226,-4416.435,-4461.6875,-4480.653,-4495.9956,-4526.727,-4582.553,-4658.3564,-4748.907,-4791.389,-4763.2734,-4752.036,-4696.22,-4551.9297,-4455.911,-4429.747,-4427.2036,-4443.9414,-4458.371,-4436.9272,-4406.4365,-4419.8267,-4410.331,-4397.5474,-4436.4736,-4441.783,-4423.901,-4424.7866,-4440.0537,-4456.018,-4459.2495,-4477.377,-4502.093,-4522.9224,-4509.2363,-4475.2437,-4475.3086,-4465.991,-4454.746,-4458.301,-4453.185,-4458.2954,-4461.494,-4464.2554,-4478.3057,-4494.3574,-4518.8257,-4546.3794,-4570.0337,-4595.5103,-4616.1973,-4610.1025,-4592.234,-4585.06,-4580.9434,-4586.4453,-4602.324,-4630.9062,-4663.808,-4671.9326,-4661.5264,-4634.259,-4577.9644,-4518.5454,-4473.7207,-4437.5728,-4431.062,-4444.4077,-4454.7095,-4482.048,-4509.128,-4530.889,-4549.6675,-4541.0396,-4539.2134,-4553.4023,-4574.7026,-4582.702,-4536.438,-4510.2554,-4525.6772,-4512.4043,-4499.4604,-4527.9907,-4573.1357,-4588.2217,-4588.938,-4603.828,-4587.924,-4559.622,-4568.196,-4573.77,-4559.1035,-4560.663,-4577.688,-4583.4526,-4590.139,-4618.1143,-4623.6953,-4598.5938,-4610.5186,-4618.5894,-4572.7617,-4582.8145,-4678.5737,-4749.26,-4744.8325,-4707.5166,-4694.5757,-4661.368,-4584.724,-4555.1484,-4546.498,-4514.062,-4497.514,-4485.86,-4484.293,-4485.9814,-4476.4277,-4480.1104,-4490.6265,-4503.833,-4510.405,-4519.9473,-4544.2217,-4549.2036,-4549.5723,-4572.3525,-4611.2944,-4640.51,-4636.7363,-4654.487,-4693.6245,-4694.809,-4695.964,-4687.533,-4621.305,-4552.7393,-4528.466,-4526.721,-4529.075,-4533.768,-4526.568,-4529.533,-4550.7334,-4561.145,-4584.351,-4608.222,-4605.099,-4583.824,-4556.958,-4565.6953,-4583.979,-4572.4697,-4566.743,-4572.4766,-4586.7065,-4613.863,-4628.173,-4613.8433,-4594.9043,-4604.8486,-4620.972,-4628.7324,-4655.8936,-4691.8696,-4709.395,-4701.2686,-4677.918,-4652.5684,-4626.5723,-4604.386,-4622.884,-4667.348,-4679.0117,-4689.998,-4681.574,-4638.627,-4624.9,-4600.34,-4561.3237,-4547.0273,-4549.7153,-4564.3447,-4581.249,-4627.293,-4672.717,-4674.353,-4643.4814,-4593.502,-4570.068,-4564.2334,-4572.905,-4594.8374,-4586.227,-4596.792,-4612.166,-4602.569,-4625.9585,-4641.6216,-4636.047,-4628.9453,-4608.9307,-4616.19,-4628.6636,-4626.961,-4643.3594,-4680.066,-4730.8516,-4739.208,-4698.308,-4677.5127,-4671.504,-4648.5464,-4639.4414,-4673.1284,-4696.322,-4678.5215,-4647.203,-4630.544,-4668.4893,-4718.133,-4710.682,-4681.904,-4671.3193,-4635.915,-4594.336,-4596.5723,-4581.95,-4593.741,-4658.074,-4684.8228,-4737.0347,-4811.321,-4795.2314,-4723.011,-4698.1396,-4730.19,-4743.6055,-4730.2554,-4741.9146,-4770.548,-4732.2207,-4658.616,-4632.035,-4587.2563,-4549.5356,-4550.2573,-4547.0293,-4563.443,-4575.354,-4590.138,-4616.9873,-4623.748,-4625.414,-4655.939,-4714.598,-4748.1045,-4784.8276,-4839.367,-4858.607,-4832.603,-4765.976,-4732.445,-4739.8594,-4715.366,-4682.4517,-4649.577,-4613.2144,-4604.936,-4598.855,-4588.0728,-4610.1416,-4632.2974,-4651.958,-4718.8574,-4768.4536,-4772.9517,-4811.2964,-4884.7896,-4927.4297,-4908.7373,-4856.7485,-4764.028,-4656.5645,-4589.3857,-4547.073,-4561.1484,-4595.8853,-4607.8647,-4623.901,-4637.895,-4674.991,-4689.5083,-4701.9023,-4754.9595,-4764.963,-4754.4443,-4761.4165,-4778.5,-4809.434,-4830.402,-4790.1357,-4709.7905,-4683.8696,-4679.3955,-4691.6587,-4740.888,-4755.639,-4745.685,-4721.1704,-4701.3003,-4703.143,-4677.9204,-4648.032,-4625.791,-4611.2144,-4612.452,-4597.373,-4598.7817,-4632.776,-4667.113,-4686.762,-4711.946,-4795.2065,-4858.7114,-4848.703,-4854.4175,-4874.873,-4879.712,-4876.5547,-4885.1323,-4882.0576,-4806.679,-4740.034,-4716.364,-4707.197,-4718.967,-4709.218,-4746.7783,-4780.7896,-4718.406,-4706.3735,-4739.609,-4735.8506,-4720.945,-4695.6323,-4669.3394,-4681.6353,-4725.122,-4726.379,-4725.4805,-4755.786,-4786.9683,-4834.8423,-4844.3564,-4820.0444,-4788.807,-4733.382,-4696.578,-4664.6885,-4632.4663,-4644.3774,-4694.1265,-4732.866,-4724.8164,-4712.6904,-4716.902,-4728.084,-4756.502,-4759.0576,-4772.404,-4829.2285,-4837.6094,-4796.123,-4750.167,-4703.9575,-4671.157,-4672.4326,-4688.258,-4714.3306,-4792.4707,-4843.888,-4841.5273,-4870.262,-4900.306,-4883.334,-4847.968,-4805.8506,-4740.83,-4730.656,-4767.117,-4751.621,-4732.7285,-4741.641,-4771.095,-4782.8716,-4775.912,-4835.914,-4903.715,-4913.3203
-4915.971,-4963.4272,-4960.489,-4867.2,-4837.488,-4803.969,-4770.0674,-4815.148,-4787.3164,-4742.645,-4729.3843,-4709.428,-4702.9033,-4673.317,-4672.247,-4659.008,-4635.055,-4651.7607,-4645.675,-4657.1216,-4681.255,-4687.8276,-4696.3945,-4718.542,-4750.468,-4761.606,-4805.8726,-4871.7227,-4908.8335,-4946.444,-4966.9033,-4965.7363,-4963.2056,-4954.052,-4952.1694,-4912.788,-4819.6436,-4789.5464,-4775.67,-4731.868,-4746.905,-4768.7236,-4802.5586,-4836.0723,-4815.562,-4779.5703,-4756.869,-4779.7866,-4796.69,-4831.992,-4894.98,-4928.19,-4942.2896,-4888.836,-4815.4663,-4749.1597,-4721.781,-4762.5625,-4758.7993,-4769.2627,-4805.7627,-4814.84,-4850.8843,-4865.7754,-4872.351,-4869.184,-4802.1045,-4786.756,-4815.2676,-4789.6675,-4783.4854,-4812.5454,-4839.296,-4884.608,-4988.255,-5131.1006,-5188.8643,-5159.549,-5108.541,-5058.132,-5013.788,-4895.839,-4771.546,-4760.7754,-4767.336,-4739.754,-4765.043,-4811.9336,-4809.1445,-4801.3066,-4763.14,-4712.328,-4709.524,-4676.115,-4649.966,-4678.7144,-4692.394,-4691.2554,-4693.1484,-4724.5244,-4748.858,-4743.236,-4793.892,-4840.019,-4841.038,-4857.566,-4857.066,-4878.408,-4916.955,-4907.399,-4888.609,-4861.7495,-4839.6084,-4844.17,-4853.668,-4886.119,-4947.3105,-4972.3623,-4940.779,-4935.665,-4927.209,-4894.314,-4911.451,-4919.052,-4935.4126,-4951.5605,-4883.132,-4841.5938,-4826.5615,-4838.5415,-4923.539,-4986.707,-5066.2583,-5086.4126,-4944.213,-4801.607,-4728.428,-4681.611,-4631.3843,-4603.906,-4649.105,-4706.923,-4748.341,-4806.2705,-4854.9688,-4929.994,-5072.5054,-5160.5884,-5130.8447,-5072.681,-5000.133,-4868.485,-4744.5703,-4681.96,-4658.835,-4677.4565,-4698.018,-4705.551,-4724.693,-4751.819,-4776.528,-4784.6704,-4797.7646,-4809.149,-4819.1987,-4829.9,-4819.8574,-4819.7817,-4811.353,-4794.61,-4791.393,-4777.622,-4781.0796,-4793.8813,-4795.0327,-4826.461,-4877.22,-4895.1064,-4892.7954,-4896.1265,-4907.936,-4949.3604,-4999.846,-5051.0234,-5077.263,-4992.3257,-4869.194,-4800.6123,-4761.994,-4754.7983,-4752.425,-4770.9136,-4826.3677,-4853.015,-4864.716,-4875.236,-4882.3013,-4883.944,-4853.2583,-4846.412,-4875.8296,-4905.6587,-4935.705,-4965.126,-5004.1304,-5033.1836,-5070.578,-5101.6187,-5052.105,-4942.1465,-4846.5063,-4805.8774,-4764.2764,-4726.4355,-4736.894,-4766.008,-4834.255,-4893.0093,-4904.3525,-4914.8423,-4887.8564,-4827.76,-4803.5825,-4803.6655,-4794.566,-4784.775,-4775.4805,-4787.304,-4816.919,-4850.1904,-4912.579,-4966.0713,-5009.191,-5083.0913,-5144.3125,-5139.7837,-5053.5645,-4943.73,-4897.844,-4890.065,-4893.201,-4946.699,-4988.7485,-5013.3086,-5085.2656,-5143.99,-5150.6104,-5072.4106,-4954.2056,-4891.975,-4825.108,-4765.317,-4734.801,-4712.749,-4739.3076,-4764.097,-4788.0728,-4835.3984,-4850.4097,-4846.922,-4840.086,-4828.109,-4824.9854,-4823.015,-4818.872,-4829.6,-4851.269,-4844.342,-4834.517,-4853.1035,-4861.8857,-4875.8037,-4914.797,-4941.9375,-4953.6953,-4978.6504,-5026.0933,-5061.295,-5047.831,-5008.769,-4983.7554,-4955.3,-4918.1895,-4909.9287,-4883.6523,-4855.153,-4870.6636,-4856.426,-4886.24,-4966.4644,-4990.649,-5009.7686,-4991.805,-4987.5625,-5082.677,-5172.68,-5243.4224,-5267.7446,-5197.876,-5066.216,-4908.493,-4803.2485,-4745.2754,-4697.4497,-4676.409,-4679.425,-4711.6943,-4751.203,-4783.0273,-4812.6123,-4840.3716,-4876.9233,-4893.057,-4884.965,-4886.1216,-4898.2563,-4906.68,-4905.2246,-4908.1826,-4903.8384,-4891.2275,-4896.7227,-4916.382,-4941.17,-4951.774,-4944.7373,-4941.98,-4952.105,-4970.195,-4990.294,-5006.2417,-4987.869,-4943.2607,-4921.3716,-4930.638,-4948.745,-4969.7314,-4991.63,-4997.1787,-5004.446,-5002.1025,-4978.4873,-4984.666,-5001.9087,-4997.647,-4980.3994,-4988.3833,-5046.739,-5082.4023,-5036.0283,-4943.773,-4914.352,-4947.6846,-4976.368,-5005.2446,-4981.3735,-4911.1064,-4854.8794,-4841.1465,-4848.4785,-4833.544,-4841.5435,-4841.7393,-4840.645,-4874.681,-4894.652,-4909.385,-4901.8354,-4903.045,-4938.6523,-4971.9663,-5011.777,-5051.1636,-5121.4683,-5222.5796,-5303.513,-5350.949,-5332.3716,-5249.743,-5185.967,-5131.9585,-5008.9424,-4892.4077,-4852.9575,-4856.9717,-4865.779,-4839.4336,-4824.188,-4865.8936,-4920.8438,-4952.997,-4974.1904,-4984.71,-4941.5005,-4882.7593,-4857.3564,-4825.151,-4827.127,-4863.845,-4883.558,-4964.6523,-5062.397,-5100.608,-5131.279,-5147.305,-5122.7505,-5038.3267,-4943.9043,-4874.507,-4814.019,-4791.0947,-4802.1226,-4880.8467,-5004.1255,-5149.3916,-5319.016,-5380.737,-5337.65,-5266.8643,-5143.1553,-5025.2036,-4979.1606,-4952.1523,-4963.2993,-5024.957,-5052.037,-5060.087,-5058.167,-5085.5225,-5139.9673,-5150.002,-5115.9014,-5024.7295,-5060.515,-5197.5527,-5217.0933,-5175.8193,-5037.5796,-4881.0723,-4797.5073,-4721.618,-4718.4653,-4766.189,-4831.5845,-4887.4546,-4912.091,-4937.164,-4946.019,-4943.561,-4928.728,-4918.2783,-4920.2007,-4968.864,-5028.87,-5031.1914,-5064.1953,-5087.5693,-5105.0215,-5122.2793,-5031.8276,-4971.637,-4939.063,-4885.9053,-4898.551,-4912.2783,-4939.6694,-4978.6562,-5005.858,-5022.041,-4987.638,-4937.9976,-4885.9595,-4873.7144,-4892.2334,-4916.348,-4964.051,-4981.6406,-5009.311,-5046.824,-5048.369,-5042.7354,-5027.315,-5015.453,-4995.0693,-4986.767,-5024.903,-5048.078,-5049.657,-5051.9707,-5038.218,-5004.354,-4943.319,-4907.804,-4982.182,-5123.553,-5212.126,-5212.233,-5163.699,-5102.7896,-5062.1646,-5037.252,-4997.7515,-4983.524,-5026.449,-5080.968,-5101.44,-5084.397,-5054.984,-5011.798,-4947.4536,-4882.703,-4825.13,-4789.4067,-4804.3286,-4890.5464,-5055.9785,-5224.5376,-5303.1455,-5329.276,-5313.1943,-5160.3994,-4974.2354,-4942.48,-4978.683,-4996.782,-5015.341,-4997.9253,-4976.6123,-4965.5757,-4945.498,-4917.056,-4875.15,-4839.4688,-4813.493,-4832.839,-4895.797,-4960.731,-5010.1953,-5008.58,-4990.487,-5005.7534,-5034.8145,-5067.721,-5177.4624,-5331.725,-5327.421,-5212.93,-5151.4756,-5061.542,-4960.8296,-4942.8228,-4898.4233,-4836.8936,-4850.091,-4849.278,-4804.0776,-4760.9487,-4746.75,-4777.476,-4848.3706,-4983.1167,-5108.0913,-5183.1416,-5229.994,-5183.026,-5141.7827,-5185.4634,-5244.0967,-5309.5415,-5317.922,-5267.533,-5180.8267,-5034.296,-4949.591,-4938.652,-4882.7266,-4812.196,-4785.3013,-4750.4995,-4725.215,-4779.088,-4814.4585,-4842.971,-4950.5728,-5037.622,-5111.0996,-5157.502,-5117.182,-5083.256,-5045.1265,-4997.385,-4980.6187,-4988.0513,-5072.0107,-5169.5796,-5216.5854,-5190.8916,-5064.8994,-4976.866,-4924.663,-4863.9546,-4860.3364,-4879.0117,-4943.264,-5009.027,-5043.8936,-5115.378,-5173.975,-5203.044,-5196.184,-5142.316,-5067.0654,-5010.0005,-4978.495,-4936.337,-4964.152,-5028.199,-5003.791,-4914.2964,-4850.5005,-4888.779,-4921.4746,-4923.502,-4982.768,-5063.246,-5181.271,-5252.9277,-5237.2397,-5200.073,-5104.8413,-5050.1304,-5063.447,-5048.41,-4990.768,-4903.577,-4880.2017,-4908.7266,-4932.8667,-4996.174,-5059.552,-5089.186,-5095.398,-5083.4814,-5079.8706,-5079.517,-5067.8555,-5017.3726,-4965.994,-4987.803,-4986.9272,-4930.9473,-4948.621,-5030.8247,-5061.1113,-5033.9927,-5036.4155,-5059.866,-5077.5674,-5108.4355,-5132.5234,-5120.305,-5071.067,-5072.519,-5136.8887,-5206.6636,-5212.877,-5109.893,-5021.481,-4957.027,-4948.779,-5034.6494,-5069.635,-5066.0044,-4999.0903,-4862.6816,-4766.835,-4723.5537,-4739.779,-4790.101,-4850.1626,-4903.36,-4963.765,-5025.8936,-5056.1753,-5087.505,-5116.679,-5175.901,-5255.5156,-5322.728,-5358.8364,-5265.715,-5119.483,-5003.955,-4862.519,-4780.099,-4830.7417,-4914.645,-4994.9062,-5067.4546,-5074.196,-5059.512,-5047.4365,-5038.0957,-5023.7183,-4982.894,-4998.275,-5009.3755,-5006.7163,-5079.699,-5117.0757,-5127.608,-5155.113,-5151.44,-5121.6323,-5032.5513,-4950.447,-4939.786,-4928.5435,-4921.385,-4945.8525,-4967.486,-4980.3296,-4985.4736,-4980.076,-4967.94,-4941.459,-4929.2305,-4972.49,-5057.8555,-5141.3027,-5229.263,-5321.019,-5338.0977,-5300.6943,-5269.2188,-5200.3564,-5077.6553,-4937.221,-4886.9243,-4955.0186,-5031.7,-5076.911,-5049.179,-5040.056,-5082.985,-4997.1313,-4902.7446,-4905.872,-4922.9556,-4953.559,-4939.407,-4908.8525,-4905.892,-4894.504,-4895.532,-4901.3696,-4912.8413,-4937.47,-4942.3105,-4957.616,-4983.3955,-4975.252,-4969.742,-4955.4346,-4927.822,-4910.3286,-4878.2554,-4877.3955,-4905.459,-4917.6646,-4943.128,-5006.3115,-5055.429,-5035.957,-5019.029,-5043.4326,-5072.002,-5090.0405,-5094.3506,-5106.8296,-5137.7075,-5159.5728,-5151.7803,-5203.385,-5263.2886,-5191.8496,-5117.398,-5020.0483,-4876.787,-4828.51,-4765.6196,-4726.021,-4775.182,-4811.594,-4899.6475,-5013.4175,-5110.438,-5184.126,-5162.133,-5080.416,-4995.6562,-4949.332,-4930.3525,-4927.7236,-4967.069,-5006.989,-5053.6616,-5113.254,-5117.2275,-5068.272,-5060.468,-5117.639,-5141.2954,-5082.2944,-5059.582,-5128.268,-5147.319,-5109.1807,-5100.803,-5090.128,-5053.4253,-4989.5645,-4945.4146,-4957.3984,-4966.4927,-4948.742,-4944.0854,-4978.671,-5004.907,-5021.3647,-5083.7607,-5118.761,-5090.3477,-5096.5967,-5154.5503,-5184.5015,-5146.627,-5072.716,-5031.9404,-5041.6523,-5012.0386,-4971.3433,-4991.606,-4991.116,-4984.197,-4982.867,-4951.4824,-4949.3486,-4943.5215,-4917.2515,-4922.9614,-4982.365,-5094.498,-5138.607,-5095.524,-5114.7188,-5206.0503,-5282.525,-5284.8447,-5239.95,-5208.9766,-5125.8154,-4984.8213,-4897.803,-4873.2,-4855.3945,-4849.6846,-4867.837,-4884.421,-4920.532,-4972.984,-5004.0728,-5047.15,-5072.404,-5088.654,-5207.334,-5313.917,-5290.6167,-5259.3657,-5255.657,-5252.312,-5227.1353,-5108.914,-4970.081,-4947.8135,-5042.898,-5151.2266,-5177.2905,-5108.5947,-5012.914,-4979.0376,-4959.6094,-4889.0283,-4870.829,-4907.554,-4925.1357,-4976.8564,-5052.622,-5098.4424,-5105.3604,-5076.8867,-5038.4385,-4994.524,-4963.5967,-4959.194,-4967.928,-4974.2197,-4973.854,-4977.232,-4963.7393,-4950.5283,-4959.3105,-4970.2188,-4979.7173,-4983.376,-4995.4585,-5009.706,-5023.8975,-5072.169,-5126.381,-5151.8,-5180.582,-5208.4707,-5254.6675,-5383.3677,-5420.6934,-5275.6753,-5179.0825,-5147.8296,-5086.1157,-5058.319,-5074.297,-5064.5503,-5040.8027,-5037.2026,-4980.788,-4925.8286,-4929.2393,-4905.913,-4900.1016,-4937.486,-4979.9863,-5015.257,-5031.1934,-5043.1997,-5031.0254,-5009.143,-5003.978,-4996.8022,-5001.9624,-5043.046,-5119.1743,-5230.0215,-5354.0625,-5426.832,-5437.7783,-5411.8223,-5369.0815,-5367.668,-5347.091,-5188.8584,-5027.168,-4991.6543,-4978.15,-4956.0474,-4922.2593,-4902.1636,-4941.932,-4944.7754,-4945.3154,-4966.7354,-4965.4995,-4981.813,-4981.0757,-4983.304,-4989.3945,-5015.1494,-5103.917,-5174.6377,-5229.0254,-5314.468,-5404.899,-5399.0674,-5335.2017,-5294.2275,-5167.257,-5067.514,-5071.4707,-5061.559,-5078.989,-5088.8,-5080.4756,-5060.317,-4990.884,-4954.8423,-4942.7153,-4950.6685,-4988.423,-5016.151,-5045.1655,-5095.572,-5179.9473,-5194.2476,-5156.425,-5200.8813,-5268.84,-5313.7354,-5329.9688,-5308.7124,-5291.6055,-5237.318,-5133.8496,-5054.9805,-4990.912,-4953.8813,-4938.491,-4908.3677,-4929.983,-4949.889,-4956.4937,-4999.556,-5001.7227,-5011.7505,-5040.2573,-5048.2954,-5058.6016,-5064.8306,-5091.474,-5097.7026,-5100.935,-5126.1416,-5120.43,-5119.983,-5121.7056,-5112.4062,-5111.594,-5111.04,-5099.688,-5071.5903,-5049.9595,-5028.3784,-5008.4165,-5012.87,-5033.172,-5066.014,-5109.3936,-5149.781,-5181.435,-5226.606,-5287.472,-5334.542,-5347.439,-5324.846,-5280.843,-5216.2505,-5144.288,-5088.4937,-5055.8027,-5042.537,-5056.838,-5079.1377,-5054.176,-5074.1772,-5205.5186,-5322.1235,-5353.251,-5257.8047,-5087.428,-5004.6406,-4985.9604,-4958.5703,-4974.018,-5046.194,-5124.956,-5209.2847,-5279.6533,-5285.368,-5265.5703,-5251.803,-5225.076,-5140.5815,-5035.294,-5013.8057,-5014.299,-5023.6953,-5085.396,-5124.37,-5122.578,-5119.6885,-5142.996,-5134.0747,-5083.0376,-5068.313,-5071.889,-5114.382,-5240.881,-5399.274,-5482.382,-5458.839,-5375.0117,-5237.754,-5118.6895,-5036.6865,-4969.1895,-4986.223,-5032.157,-5069.5815,-5148.4956,-5206.4146,-5265.998,-5385.2725,-5445.4126,-5419.6104,-5383.344,-5318.607,-5221.6143,-5152.384,-5162.906,-5154.814,-5084.5186,-5061.02,-5042.291,-5014.5615,-5038.2515,-5079.898,-5115.608,-5135.419,-5123.3867,-5099.929,-5085.3438,-5046.321,-5029.9194,-5048.449,-5035.304,-5031.5015,-5033.9663,-5041.8643,-5055.482,-5049.251,-5059.1177,-5071.8403,-5094.4277,-5115.969,-5130.2974,-5168.7754,-5198.8345,-5232.0356,-5257.6875,-5243.0757,-5215.1494,-5187.997,-5167.069,-5157.564,-5181.952,-5236.547,-5269.246,-5251.695,-5194.132,-5114.815,-5046.704,-5031.501,-5033.5366,-5033.6685,-5075.7437,-5139.1533,-5190.5386,-5217.3115,-5245.9673,-5323.928,-5409.1133,-5447.5674,-5454.397,-5383.7783,-5259.9233,-5264.393,-5274.587,-5175.5557,-5131.5566,-5090.777,-5095.4277,-5143.6763,-5085.7173,-5073.1587,-5116.917,-5178.8486,-5263.1045,-5272.1147,-5300.323,-5307.205,-5221.6455,-5144.88,-5068.3423,-5027.6333,-5074.5283,-5169.52,-5237.2026,-5227.906,-5231.185,-5266.223,-5226.0146
-5148.3853,-5110.928,-5071.8096,-5069.24,-5139.208,-5160.4434,-5147.4365,-5207.4277,-5310.2544,-5387.067,-5356.7036,-5249.9966,-5166.6074,-5058.4565,-4958.463,-4966.8296,-5002.367,-5031.9043,-5088.2124,-5118.4673,-5147.131,-5173.6323,-5166.988,-5176.138,-5173.431,-5155.25,-5134.904,-5108.252,-5104.4067,-5082.94,-5067.7754,-5096.3076,-5133.123,-5162.7207,-5174.559,-5199.007,-5241.4644,-5294.1,-5338.619,-5315.8193,-5279.898,-5269.7446,-5208.9355,-5136.695,-5135.7905,-5150.377,-5160.7524,-5172.6567,-5152.0757,-5144.9185,-5128.6064,-5103.367,-5152.863,-5200.7827,-5191.238,-5176.4507,-5172.523,-5165.981,-5144.5254,-5139.651,-5166.7363,-5186.6284,-5187.1997,-5185.38,-5176.1167,-5163.862,-5158.848,-5164.505,-5179.4497,-5164.623,-5138.8496,-5122.0317,-5093.5957,-5086.6074,-5092.469,-5119.779,-5158.574,-5167.4897,-5184.982,-5201.109,-5225.2056,-5245.7495,-5231.9883,-5232.676,-5224.7593,-5210.232,-5224.6426,-5246.3877,-5247.6416,-5251.621,-5281.3984,-5275.231,-5282.104,-5353.206,-5383.3306,-5347.324,-5299.761,-5253.1187,-5222.6675,-5202.5767,-5156.7134,-5150.703,-5191.476,-5216.725,-5246.2676,-5232.8403,-5238.562,-5306.1865,-5317.5283,-5292.2764,-5229.192,-5165.5596,-5184.136,-5221.2534,-5239.091,-5226.4336,-5206.526,-5197.526,-5177.4756,-5197.037,-5247.452,-5250.2363,-5225.9336,-5202.382,-5176.3364,-5180.7256,-5183.9966,-5169.2007,-5157.4336,-5140.1978,-5136.405,-5137.8477,-5145.5806,-5195.2725,-5341.5063,-5541.5605,-5626.2163,-5569.541,-5470.484,-5362.705,-5233.296,-5157.862,-5158.056,-5153.022,-5182.931,-5226.0063,-5212.971,-5188.747,-5162.315,-5130.601,-5114.078,-5102.645,-5081.0264,-5069.756,-5086.2993,-5118.75,-5143.4775,-5149.2637,-5162.593,-5184.995,-5231.117,-5308.6313,-5375.848,-5428.5786,-5436.2896,-5427.635,-5448.873,-5412.06,-5353.49,-5347.6245,-5308.5083,-5243.869,-5232.65,-5196.303,-5101.01,-5071.961,-5099.632,-5113.765,-5147.633,-5225.0557,-5321.5967,-5388.6064,-5472.4844,-5602.1875,-5660.102,-5609.8804,-5556.979,-5499.6753,-5329.483,-5149.303,-5073.9736,-5024.1655,-5021.614,-5074.5747,-5098.3228,-5116.037,-5181.616,-5263.7754,-5297.3213,-5320.2437,-5340.4478,-5285.0005,-5204.524,-5165.6953,-5165.596,-5168.674,-5172.0767,-5227.8403,-5297.791,-5362.6025,-5417.064,-5389.7686,-5366.57,-5379.7637,-5290.682,-5197.8145,-5220.1333,-5258.414,-5282.846,-5288.475,-5274.8105,-5263.847,-5241.2476,-5239.2407,-5246.2,-5257.1777,-5300.4253,-5332.9287,-5316.276,-5271.8735,-5279.9253,-5344.0786,-5406.8027,-5436.252,-5390.5425,-5320.954,-5272.762,-5232.783,-5233.062,-5242.4995,-5243.035,-5271.6216,-5284.955,-5274.6943,-5274.8022,-5254.39,-5215.2705,-5191.551,-5193.576,-5227.9453,-5301.069,-5398.466,-5447.892,-5428.585,-5374.7935,-5314.9204,-5289.554,-5269.6826,-5279.8486,-5332.193,-5340.157,-5327.536,-5322.2812,-5334.7534,-5364.4546,-5352.67,-5293.6953,-5234.195,-5201.757,-5152.023,-5134.881,-5172.1045,-5201.5527,-5282.7744,-5364.0513,-5396.1963,-5428.2905,-5471.707,-5515.56,-5482.7285,-5443.188,-5442.074,-5411.1216,-5399.281,-5384.058,-5334.434,-5276.8667,-5251.5566,-5283.325,-5283.53,-5262.727,-5268.0317,-5257.0664,-5252.298,-5260.6187,-5260.492,-5277.3955,-5341.766,-5441.9507,-5494.2725,-5470.365,-5429.955,-5383.8843,-5327.7896,-5300.2783,-5297.817,-5298.9785,-5330.826,-5351.734,-5352.697,-5354.368,-5279.283,-5219.7085,-5236.329,-5242.1807,-5266.1353,-5280.688,-5309.9067,-5409.3604,-5452.452,-5388.2427,-5314.2344,-5279.835,-5281.173,-5333.729,-5381.348,-5380.5645,-5355.1616,-5307.3433,-5279.618,-5276.0215,-5277.2124,-5306.4854,-5345.8857,-5368.2837,-5402.069,-5434.1143,-5413.919,-5384.459,-5373.0854,-5400.01,-5442.2456,-5414.5786,-5363.4653,-5336.5264,-5345.7637,-5336.5337,-5271.033,-5288.0283,-5331.109,-5291.904,-5288.3535,-5311.671,-5315.3677,-5364.106,-5413.6475,-5417.632,-5391.004,-5335.6294,-5297.8594,-5290.766,-5279.5537,-5250.1514,-5232.9536,-5273.676,-5321.2686,-5319.7383,-5343.9644,-5426.233,-5485.42,-5529.765,-5610.9,-5651.6606,-5596.2505,-5544.999,-5516.441,-5432.0127,-5335.451,-5256.247,-5199.476,-5186.6943,-5179.728,-5221.098,-5297.235,-5310.8374,-5317.8184,-5322.2065,-5285.005,-5281.1284,-5299.6074,-5325.7866,-5404.887,-5490.7427,-5512.296,-5497.958,-5507.329,-5453.771,-5344.5376,-5299.0303,-5256.6504,-5250.9165,-5296.9106,-5298.0757,-5311.892,-5305.6084,-5271.1895,-5266.9116,-5260.922,-5290.3887,-5312.837,-5304.9507,-5313.5127,-5320.3696,-5358.9883,-5392.6123,-5393.909,-5392.773,-5372.569,-5374.6855,-5376.516,-5368.7593,-5399.69,-5437.104,-5502.2603,-5552.855,-5523.486,-5495.621,-5478.8247,-5429.4824,-5366.8315,-5327.675,-5314.03,-5292.6304,-5268.421,-5247.517,-5248.2393,-5275.5054,-5287.8657,-5323.3345,-5416.161,-5496.8677,-5482.94,-5384.732,-5322.53,-5317.8506,-5307.097,-5310.1206,-5326.2217,-5362.3066,-5400.7544,-5381.9243,-5359.043,-5346.434,-5335.3037,-5349.8716,-5352.345,-5355.7046,-5356.493,-5328.3203,-5318.1064,-5330.8696,-5344.101,-5348.0073,-5333.9385,-5335.1094,-5352.664,-5358.733,-5366.1807,-5387.1426,-5435.675,-5499.4697,-5536.592,-5553.5493,-5571.76,-5583.152,-5558.5605,-5477.6777,-5402.386,-5383.349,-5351.874,-5307.2905,-5285.5264,-5258.5894,-5273.156,-5302.758,-5321.0054,-5393.125,-5450.052,-5469.047,-5465.766,-5417.596,-5377.936,-5331.27,-5286.6997,-5302.422,-5341.076,-5361.5117,-5382.331,-5408.5444,-5403.5483,-5393.9507,-5383.394,-5370.133,-5399.8276,-5424.9976,-5444.949,-5480.8423,-5526.071,-5565.9346,-5544.528,-5512.284,-5448.772,-5345.465,-5311.4185,-5300.549,-5276.0137,-5277.19,-5311.0576,-5358.736,-5403.2563,-5438.637,-5439.598,-5436.433,-5445.4927,-5484.276,-5546.6436,-5561.1597,-5577.2676,-5580.0034,-5497.657,-5409.2847,-5347.427,-5315.149,-5311.2505,-5305.2915,-5333.443,-5376.746,-5417.6147,-5479.199,-5515.886,-5514.03,-5542.752,-5586.87,-5513.105,-5408.8506,-5378.5825,-5336.5737,-5326.6724,-5319.3394,-5303.8325,-5340.57,-5348.6504,-5360.624,-5377.3486,-5379.744,-5403.6997,-5401.3716,-5403.0093,-5413.6606,-5418.492,-5421.38,-5394.4277,-5386.9307,-5401.613,-5413.8687,-5431.6455,-5430.416,-5433.4126,-5454.496,-5443.368,-5424.3647,-5462.4663,-5524.749,-5547.486,-5513.1147,-5475.9126,-5477.9453,-5455.998,-5407.925,-5405.196,-5436.5986,-5455.41,-5469.42,-5479.454,-5474.9863,-5474.67,-5445.77,-5395.7637,-5366.9746,-5349.569,-5371.9805,-5409.359,-5423.904,-5434.627,-5447.3496,-5476.433,-5512.73,-5565.848,-5603.9395,-5580.135,-5539.4,-5487.6597,-5461.841,-5487.7554,-5499.889,-5484.331,-5440.437,-5400.8237,-5372.9272,-5326.4775,-5324.4287,-5364.1846,-5390.961,-5408.962,-5418.7017,-5425.546,-5440.394,-5451.1963,-5443.8027,-5444.306,-5447.043,-5439.7065,-5422.1753,-5398.904,-5430.1255,-5468.137,-5479.455,-5514.4956,-5551.872,-5590.1772,-5615.88,-5606.86,-5547.8516,-5494.3447,-5501.0605,-5479.078,-5441.177,-5412.13,-5390.682,-5385.827,-5340.671,-5322.9136,-5326.2446,-5314.2056,-5338.2417,-5353.4136,-5356.667,-5362.6484,-5391.6885,-5443.3853,-5471.7803,-5511.1636,-5565.006,-5597.0913,-5581.874,-5538.6685,-5498.5264,-5449.643,-5425.2573,-5424.248,-5424.118,-5430.938,-5427.758,-5427.409,-5443.1333,-5463.397,-5476.7373,-5484.925,-5507.3926,-5542.219,-5566.783,-5566.122,-5567.5117,-5571.325,-5528.835,-5492.1514,-5485.7603,-5445.803,-5412.188,-5403.6553,-5408.159,-5429.854,-5420.9434,-5414.0454,-5416.4546,-5410.9053,-5421.13,-5399.583,-5390.472,-5407.5415,-5396.01,-5418.1577,-5449.6816,-5452.301,-5460.456,-5478.276,-5522.381,-5575.6343,-5623.088,-5646.1963,-5632.1216,-5616.6587,-5601.5684,-5600.559,-5579.331,-5515.3257,-5483.812,-5446.2563,-5401.8657,-5407.645,-5415.0,-5450.4272,-5499.714,-5514.643,-5518.825,-5488.142,-5468.415,-5469.5923,-5449.29,-5452.3022,-5470.1885,-5498.1733,-5547.0513,-5576.984,-5574.3735,-5559.3022,-5551.9473,-5566.1826,-5620.83,-5665.9556,-5640.1724,-5599.9263,-5569.388,-5504.205,-5458.9717,-5455.7334,-5439.7134,-5445.8135,-5464.3545,-5445.7446,-5407.6133,-5381.8735,-5395.5903,-5412.5264,-5414.138,-5422.865,-5441.8315,-5466.6704,-5507.3115,-5593.1562,-5666.5894,-5703.148,-5781.8027,-5897.7466,-5952.3457,-5878.187,-5724.5386,-5568.8228,-5436.1455,-5362.6685,-5375.656,-5402.806,-5407.5566,-5436.9575,-5457.9653,-5467.468,-5458.1025,-5422.5327,-5420.2207,-5392.725,-5349.2188,-5342.3447,-5344.2114,-5369.408,-5394.203,-5428.6357,-5474.24,-5499.5703,-5519.6787,-5542.3555,-5602.4873,-5671.7207,-5697.3438,-5686.1084,-5656.293,-5612.4434,-5558.342,-5547.348,-5536.77,-5481.592,-5435.8105,-5395.0815,-5371.884,-5386.777,-5421.8125,-5459.7363,-5488.1216,-5507.6997,-5519.415,-5522.5796,-5504.261,-5498.7793,-5514.4023,-5514.3325,-5526.528,-5550.188,-5576.448,-5611.2866,-5632.7144,-5636.97,-5612.4097,-5564.288,-5519.476,-5482.652,-5447.5024,-5424.793,-5432.1265,-5455.0073,-5488.493,-5536.732,-5576.778,-5606.767,-5642.5654,-5636.633,-5582.5376,-5560.1255,-5528.131,-5497.417,-5531.502,-5510.365,-5464.0894,-5471.4814,-5480.65,-5521.3716,-5542.7627,-5521.077,-5504.2705,-5486.527,-5492.54,-5495.6836,-5504.4023,-5525.129,-5539.82,-5579.038,-5594.0625,-5583.844,-5574.844,-5547.4497,-5518.169,-5494.284,-5480.718,-5473.02,-5472.8765,-5467.839,-5463.3545,-5501.8545,-5549.182,-5581.4307,-5603.09,-5603.0396,-5592.051,-5575.7417,-5561.51,-5559.72,-5583.979,-5599.789,-5578.4067,-5557.653,-5543.959,-5541.1284,-5534.0586,-5524.146,-5534.828,-5514.3486,-5490.903,-5503.742,-5509.281,-5519.9644,-5535.713,-5546.851,-5562.929,-5566.8027,-5552.9365,-5534.129,-5532.4995,-5539.9873,-5543.9946,-5550.961,-5553.8237,-5571.394,-5614.796,-5649.671,-5637.8037,-5597.719,-5573.938,-5555.258,-5538.7617,-5539.1274,-5552.678,-5558.6934,-5547.729,-5532.4346,-5495.676,-5476.627,-5499.211,-5525.486,-5570.046,-5625.529,-5690.9546,-5720.653,-5670.55,-5620.9424,-5565.5317,-5506.8726,-5512.107,-5551.1245,-5596.7544,-5623.122,-5631.8115,-5632.297,-5596.766,-5571.3257,-5546.734,-5496.112,-5463.05,-5449.1743,-5468.352,-5490.2437,-5478.246,-5476.5415,-5486.5264,-5488.3276,-5501.4927,-5544.4736,-5585.552,-5608.3647,-5641.561,-5665.264,-5674.196,-5682.093,-5653.3096,-5612.0337,-5592.4185,-5561.0166,-5533.507,-5521.4375,-5514.914,-5528.9346,-5538.533,-5553.9385,-5599.821,-5637.1685,-5628.229,-5584.7476,-5558.075,-5534.6904,-5527.1196,-5577.819,-5597.349,-5589.6357,-5615.503,-5627.3325,-5628.4585,-5633.3135,-5641.5186,-5622.317,-5569.923,-5562.4316,-5581.664,-5606.44,-5644.204,-5644.881,-5626.133,-5639.0693,-5655.3413,-5613.645,-5570.248,-5559.294,-5518.6743,-5515.64,-5542.756,-5523.0107,-5524.1987,-5531.0073,-5530.4307,-5557.1416,-5547.5435,-5526.573,-5531.3086,-5522.8667,-5518.8184,-5526.4673,-5555.9966,-5612.8154,-5629.806,-5602.2036,-5591.8667,-5606.1343,-5630.7393,-5646.3696,-5633.4185,-5617.604,-5608.6016,-5604.525,-5619.5317,-5625.2075,-5609.36,-5590.6187,-5566.3813,-5540.9014,-5526.0596,-5537.0806,-5578.582,-5614.0273,-5634.715,-5669.614,-5675.021,-5644.91,-5641.2905,-5625.998,-5589.057,-5565.411,-5565.78,-5616.4517,-5662.9897,-5706.3105,-5752.695,-5736.9927,-5720.05,-5684.6035,-5603.4736,-5559.1533,-5535.784,-5524.559,-5511.3784,-5508.9087,-5553.7764,-5579.5723,-5577.654,-5571.7734,-5566.376,-5566.2456,-5558.563,-5566.2324,-5591.564,-5613.4956,-5637.376,-5658.327,-5652.845,-5679.9927,-5743.891,-5739.1304,-5754.3027,-5782.3745,-5681.947,-5612.749,-5625.393,-5617.0293,-5603.1543,-5539.503,-5500.929,-5521.491,-5517.3057,-5537.7705,-5556.1963,-5561.9185,-5570.131,-5564.3267,-5577.217,-5566.5586,-5585.7104,-5656.0527,-5680.738,-5663.3115,-5630.5723,-5630.845,-5636.7266,-5612.7827,-5638.3477,-5704.7,-5750.408,-5787.442,-5803.0527,-5745.048,-5673.991,-5630.085,-5582.708,-5553.5654,-5527.789,-5512.374,-5504.948,-5501.401,-5517.4473,-5509.4863,-5500.3594,-5498.2476,-5506.161,-5545.4507,-5570.4116,-5583.7236,-5590.8594,-5594.78,-5610.938,-5628.993,-5641.134,-5644.471,-5644.5005,-5625.4727,-5602.7817,-5591.8774,-5594.9106,-5605.6694,-5590.4033,-5586.6484,-5594.636,-5611.795,-5650.982,-5658.193,-5658.4414,-5657.976,-5654.441,-5679.6143,-5708.6797,-5725.039,-5704.61,-5673.965,-5682.0195,-5692.373,-5661.052,-5632.5234,-5636.234,-5637.205,-5638.337,-5601.734,-5568.818,-5583.803,-5603.977,-5679.6157,-5707.175,-5656.7563,-5665.356,-5671.6636,-5663.0254,-5680.066,-5719.144,-5778.4907,-5787.298,-5743.883,-5685.569,-5618.2085,-5576.724,-5563.76,-5555.3022,-5556.098,-5561.0522,-5561.853,-5573.4937,-5597.0527,-5642.0557,-5701.559,-5703.402,-5694.8926,-5787.7285,-5852.944,-5804.942,-5753.3213,-5700.74,-5654.708,-5646.4385,-5660.5244,-5660.372,-5618.1147,-5653.191,-5725.5166,-5706.4395,-5672.839,-5649.366,-5637.2827,-5603.208,-5554.115,-5577.3486,-5588.3003,-5573.9653,-5578.2925,-5581.9224,-5594.6094,-5572.0903,-5547.781,-5554.471,-5560.032,-5579.2593,-5601.9893,-5617.8735,-5628.3086,-5655.5264,-5696.391,-5714.423,-5728.3706,-5718.946,-5677.9966
