SampleData
0.0,-2078.6565,-6583.367,-6619.2705,-4846.001,-7877.083,-6994.7783,-5561.9346,-7835.437,-6230.337,-6951.1113,-7693.5747,-6647.0596,-8185.518,-7347.418,-7845.876,-8145.7334,-7475.5547,-8281.208,-7419.6113,-7749.098,-7472.8345,-7063.0356,-7343.242,-6681.8154,-7019.9897,-6683.97,-6724.1494,-6916.52,-6749.52,-7184.2754,-7081.535,-7401.279,-7521.858,-7585.1855,-7825.0493,-7699.549,-7846.79,-7718.5933,-7664.1265,-7575.7314,-7359.919,-7307.071,-7082.656,-7014.787,-6907.9727,-6848.18,-6882.0654,-6872.385,-7005.4976,-7083.6904,-7215.9956,-7349.0566,-7456.942,-7588.9253,-7634.3936,-7700.5938,-7702.233,-7665.7476,-7605.195,-7484.092,-7376.132,-7251.513,-7148.2446,-7047.143,-6972.3022,-6946.1646,-6936.985,-6977.7124,-7038.765,-7133.919,-7237.2812,-7326.9927,-7438.0386,-7530.4937,-7594.8525,-7627.6313,-7626.0815,-7594.771,-7532.9834,-7459.798,-7369.454,-7271.459,-7181.8813,-7104.055,-7047.1196,-7021.1396,-7026.08,-7048.199,-7098.463,-7177.838,-7265.0444,-7344.8105,-7416.8315,-7488.898,-7537.8247,-7560.987,-7564.1074,-7535.4346,-7490.4736,-7426.9756,-7350.6904,-7282.1772,-7214.1357,-7153.788,-7111.329,-7090.971,-7097.2334,-7122.915,-7166.394,-7222.25,-7279.7524,-7334.614,-7386.2456,-7434.5103,-7469.9565,-7487.6943,-7492.15,-7479.7524,-7446.081,-7395.8574,-7343.045,-7295.372,-7249.3276,-7206.6733,-7174.6963,-7156.968,-7155.1885,-7177.936,-7209.8877,-7240.6313,-7290.4287,-7342.1167,-7381.3887,-7412.176,-7436.7144,-7456.785,-7452.542,-7436.4473,-7408.207,-7370.2563,-7343.3047,-7306.336,-7273.9404,-7237.6963,-7205.6245,-7214.6426,-7211.7573,-7212.5493,-7241.0366,-7260.614,-7290.4756,-7320.1655,-7344.0317,-7372.1157,-7385.6357,-7390.1787,-7389.4453,-7386.1284,-7373.45,-7345.967,-7319.774,-7299.0664,-7281.4766,-7261.898,-7247.637,-7243.983,-7244.5566,-7249.427,-7261.8447,-7284.07,-7301.1196,-7314.5107,-7329.403,-7342.541,-7360.75,-7363.9033,-7355.8403,-7350.793,-7339.119,-7326.801,-7313.1816,-7304.5684,-7294.9585,-7278.754,-7276.684,-7280.6714,-7282.2964,-7287.597,-7298.9053,-7310.029,-7315.1055,-7321.511,-7327.233,-7332.4424,-7331.7886,-7324.628,-7322.6475,-7319.32,-7311.0737,-7302.9385,-7301.781,-7302.87,-7297.6797,-7294.762,-7299.3037,-7306.098,-7306.78,-7306.766,-7309.454,-7314.775,-7320.58,-7313.5264,-7310.4785,-7315.311,-7310.2334,-7301.5728,-7293.7646,-7295.432,-7302.9023,-7302.036,-7297.0,-7296.4985,-7301.243,-7303.078,-7310.568,-7320.366,-7318.2295,-7319.0483,-7327.226,-7332.5015,-7324.9116,-7309.4565,-7302.6025,-7297.432,-7294.293,-7294.044,-7289.0635,-7287.487,-7287.471,-7290.88,-7297.282,-7303.7876,-7317.3257,-7321.9224,-7323.6533,-7333.5273,-7335.68,-7332.698,-7329.6934,-7330.315,-7325.862,-7310.5215,-7291.013,-7274.0293,-7276.265,-7275.415,-7269.768,-7275.0605,-7272.3477,-7279.1084,-7295.7344,-7314.2773,-7328.697,-7324.9336,-7337.8564,-7353.147,-7345.796,-7343.277,-7342.667,-7331.685,-7313.538,-7298.072,-7290.4087,-7288.9985,-7285.058,-7274.9385,-7272.7,-7272.8145,-7275.496,-7289.768,-7300.897,-7311.243,-7331.52,-7352.7876,-7363.186,-7360.9663,-7362.3423,-7368.6685,-7364.6377,-7352.569,-7333.824,-7314.916,-7306.908,-7300.116,-7289.6333,-7282.281,-7281.4272,-7286.4897,-7290.855,-7295.5103,-7310.2075,-7325.609,-7334.3154,-7346.155,-7352.0776,-7349.3765,-7351.9727,-7357.5825,-7353.0693,-7331.9565,-7311.598,-7299.74,-7290.798,-7288.723,-7277.7227,-7261.865,-7261.8076,-7265.8057,-7269.583,-7273.0996,-7281.358,-7302.6333,-7317.2456,-7326.3384,-7339.2827,-7345.703,-7350.6997,-7354.609,-7348.181,-7334.123,-7318.8257,-7303.2915,-7289.2373,-7279.0723,-7272.5146,-7272.586,-7274.8965,-7274.3257,-7279.104,-7287.356,-7290.536,-7301.966,-7320.6064,-7329.774,-7341.5127,-7352.5425,-7352.2246,-7349.5225,-7337.3115,-7323.9717,-7315.698,-7300.5884,-7292.1343,-7287.698,-7278.4004,-7274.7383,-7272.4854,-7269.451,-7270.1523,-7279.0527,-7294.307,-7310.989,-7327.173,-7330.912,-7336.943,-7352.872,-7348.8657,-7340.269,-7346.8823,-7344.291,-7327.0425,-7306.429,-7292.5557,-7280.7715,-7267.068,-7268.363,-7269.3037,-7264.8936,-7273.94,-7282.853,-7297.581,-7319.058,-7325.038,-7331.149,-7346.3374,-7356.8267,-7355.6855,-7343.5415,-7336.977,-7338.46,-7328.8013,-7309.121,-7299.595,-7295.855,-7289.1626,-7287.9287,-7285.796,-7284.6245,-7288.365,-7295.4946,-7308.824,-7319.54,-7332.11,-7344.1143,-7352.0254,-7357.447,-7351.637,-7348.3696,-7345.7886,-7335.394,-7324.691,-7311.938,-7300.8643,-7290.895,-7284.905,-7281.7593,-7279.7324,-7282.2617,-7277.194,-7275.431,-7286.9478,-7303.581,-7319.4062,-7320.574,-7317.913,-7328.9805,-7344.922,-7346.8687,-7335.6924,-7328.0566,-7317.1255,-7304.165,-7300.4277,-7294.2827,-7285.8584,-7283.932,-7284.237,-7285.1445,-7290.601,-7301.52,-7312.313,-7317.844,-7318.283,-7317.225,-7322.718,-7335.3677,-7339.9077,-7331.8716,-7325.018,-7324.4404,-7318.9985,-7305.0425,-7299.763,-7299.708,-7292.4834,-7287.353,-7285.685,-7284.115,-7278.455,-7283.535,-7303.282,-7311.9575,-7318.384,-7325.3154,-7327.4243,-7333.7505,-7336.55,-7333.5713,-7326.763,-7324.0,-7326.6724,-7321.1294,-7307.832,-7299.838,-7299.6357,-7294.4966,-7293.906,-7301.6265,-7298.7827,-7294.676,-7298.8335,-7306.9473,-7315.6113,-7315.774,-7318.377,-7327.854,-7327.35,-7329.6455,-7333.3203,-7323.0884,-7317.789,-7313.2036,-7308.1143,-7312.9883,-7309.7456,-7303.4614,-7304.487,-7303.278,-7299.7197,-7296.121,-7292.8633,-7298.9336,-7308.866,-7304.889,-7306.885,-7319.338,-7319.932,-7318.1426,-7311.0933,-7307.5435,-7317.1143,-7313.9253,-7306.832,-7302.3545,-7300.606,-7304.751,-7297.309,-7295.857,-7300.937,-7296.396,-7295.1665,-7302.56,-7313.804,-7308.1597,-7302.29,-7317.4985,-7322.0503,-7315.72,-7311.5903,-7311.2046,-7314.315,-7305.359,-7298.285,-7303.2773,-7302.1245,-7298.0913,-7299.9927,-7302.387,-7302.7427,-7305.047,-7312.7026,-7320.8726,-7318.7905,-7311.9653,-7311.382,-7312.21,-7314.042,-7313.4487,-7310.187,-7309.5317,-7301.927,-7299.4443,-7306.923,-7310.429,-7313.546,-7309.351,-7307.625,-7309.4434,-7297.74,-7294.9634,-7301.7334,-7304.074,-7309.4766,-7314.6284,-7319.9653,-7322.5356,-7316.3247,-7311.43,-7310.8345,-7311.164,-7312.154,-7306.381,-7303.721,-7305.047,-7297.4634,-7297.563,-7298.225,-7299.3125,-7309.483,-7304.304,-7304.3716,-7317.705,-7323.4277,-7326.046,-7326.928,-7331.3926,-7326.654,-7316.7607,-7317.823,-7318.3013,-7314.49,-7303.2983,-7302.4785,-7310.299,-7310.2915,-7316.929,-7314.546,-7307.5854,-7312.656,-7312.387,-7312.9233,-7316.5137,-7313.896,-7309.1396,-7309.922,-7314.2266,-7316.6133,-7321.7104,-7319.611,-7313.817,-7311.719,-7305.92,-7310.471,-7316.1567,-7313.801,-7314.5527,-7312.9526,-7313.204,-7311.8096,-7312.9614,-7325.104,-7332.01,-7327.3667,-7318.692,-7322.417,-7324.439,-7314.6694,-7320.088,-7331.2344,-7330.271,-7323.612,-7324.1445,-7326.319,-7324.471,-7329.0156,-7327.289,-7327.0444,-7327.168,-7322.9346,-7333.393,-7333.6855,-7324.848,-7319.928,-7316.3945,-7321.294,-7322.99,-7329.3564,-7325.4644,-7313.5166,-7317.697,-7313.7896,-7312.8057,-7316.8906,-7316.1963,-7323.422,-7326.484,-7328.503,-7327.4785,-7320.027,-7317.2134,-7320.8774,-7325.487,-7317.4434,-7310.567,-7315.2686,-7314.9727,-7306.867,-7307.0786,-7318.1514,-7320.9395,-7318.961,-7316.234,-7314.252,-7320.9346,-7319.747,-7315.687,-7320.5684,-7322.6333,-7322.4565,-7321.6597,-7319.494,-7316.6616,-7312.01,-7310.691,-7312.58,-7311.3887,-7308.953,-7311.681,-7317.4834,-7315.4194,-7308.6177,-7315.6963,-7323.353,-7317.339,-7314.248,-7313.236,-7313.654,-7312.758,-7311.683,-7318.259,-7314.244,-7308.4336,-7309.785,-7308.916,-7312.744,-7308.901,-7298.4585,-7303.5693,-7311.293,-7309.342,-7312.979,-7312.3564,-7306.3223,-7313.1567,-7314.775,-7307.8457,-7303.6714,-7307.783,-7317.709,-7311.801,-7307.4224,-7313.579,-7311.0376,-7306.8076,-7306.0547,-7306.4077,-7304.653,-7307.9243,-7313.365,-7312.5767,-7314.28,-7312.279,-7314.831,-7321.2734,-7317.241,-7316.5815,-7317.4307,-7317.723,-7321.748,-7322.147,-7320.5107,-7319.745,-7320.198,-7322.6987,-7320.216,-7311.4443,-7312.29,-7311.9424,-7303.079,-7305.487,-7309.589,-7315.421,-7323.176,-7320.6445,-7317.199,-7312.0713,-7310.4023,-7308.5933,-7305.6406,-7313.572,-7313.1875,-7308.273,-7304.912,-7303.3604,-7315.0933,-7314.059,-7303.275,-7302.667,-7305.7812,-7310.108,-7306.663,-7304.4385,-7310.125,-7313.5747,-7309.6865,-7300.754,-7303.43,-7309.2446,-7302.1157,-7296.7705,-7304.7954,-7311.5596,-7307.2256,-7305.915,-7305.569,-7305.838,-7312.104,-7313.5405,-7316.94,-7316.978,-7307.2217,-7308.284,-7316.726,-7320.349,-7321.3135,-7321.638,-7322.9717,-7325.031,-7325.587,-7323.875,-7325.7183,-7327.354,-7322.1494,-7317.992,-7317.1367,-7317.139,-7315.6064,-7315.058,-7320.669,-7324.442,-7322.866,-7319.524,-7321.9634,-7330.4014,-7329.0186,-7324.764,-7331.101,-7334.886,-7324.544,-7315.547,-7323.413,-7330.784,-7330.2954,-7326.1206,-7317.9224,-7319.6445,-7319.888,-7315.6235,-7321.661,-7322.7812,-7318.195,-7316.0786,-7319.016,-7326.07,-7325.394,-7322.031,-7322.2827,-7323.681,-7322.9385,-7322.5503,-7326.874,-7328.194,-7325.3853,-7321.5312,-7323.9976,-7329.6187,-7327.093,-7329.732,-7337.084,-7339.6245,-7333.8677,-7318.9814,-7314.0093,-7318.5024,-7323.9487,-7329.361,-7325.4116,-7316.2637,-7309.983,-7310.71,-7315.7695,-7317.1147,-7320.1357,-7326.107,-7321.09,-7311.038,-7316.895,-7327.372,-7326.611,-7323.7466,-7323.112,-7321.167,-7318.207,-7319.643,-7319.9863,-7313.419,-7312.072,-7314.7983,-7313.647,-7315.477,-7325.941,-7331.4487,-7325.6733,-7327.6655,-7329.075,-7316.7397,-7308.725,-7308.769,-7309.831,-7313.1245,-7314.455,-7310.435,-7306.5522,-7306.452,-7310.344,-7308.7905,-7303.1826,-7309.282,-7311.301,-7304.943,-7306.5845,-7308.017,-7309.19,-7310.0225,-7308.786,-7312.173,-7311.345,-7307.232,-7310.5986,-7317.3936,-7316.493,-7310.3457,-7307.316,-7306.372,-7311.813,-7317.4463,-7320.005,-7326.0664,-7325.883,-7322.5454,-7319.7637,-7314.249,-7312.649,-7311.624,-7313.0483,-7315.5776,-7310.0474,-7310.349,-7317.974,-7318.4717,-7316.759,-7317.8438,-7322.567,-7326.854,-7329.5444,-7329.8027,-7321.589,-7322.733,-7321.8496,-7311.636,-7321.6196,-7327.2856,-7324.8945,-7332.6675,-7337.908,-7342.3286,-7339.575,-7336.4526,-7334.132,-7332.018,-7336.2637,-7331.673,-7332.0425,-7335.723,-7332.7476,-7329.822,-7324.686,-7324.188,-7320.578,-7319.8174,-7326.089,-7327.9146,-7325.4517,-7317.503,-7317.401,-7319.76,-7322.5923,-7327.833,-7316.5503,-7314.5674,-7323.465,-7320.5483,-7325.207,-7328.0894,-7323.5303,-7328.093,-7332.9634,-7331.756,-7325.923,-7324.633,-7328.2246,-7327.1567,-7326.6245,-7322.944,-7319.038,-7320.822,-7320.3833,-7320.437,-7321.5576,-7328.5107,-7329.6855,-7316.0503,-7320.382,-7329.992,-7322.6587,-7320.107,-7317.9087,-7313.143,-7313.398,-7311.472,-7313.0684,-7318.7827,-7320.573,-7320.3745,-7316.8076,-7317.258,-7318.642,-7314.893,-7320.6,-7320.0854,-7314.982,-7321.3447,-7321.9004,-7323.698,-7323.0166,-7313.1104,-7309.287,-7308.7935,-7312.7217,-7319.049,-7324.175,-7321.658,-7314.0483,-7319.441,-7320.6484,-7312.459,-7309.444,-7307.4824,-7312.6025,-7321.4795,-7320.067,-7314.6494,-7316.5166,-7317.423,-7316.845,-7324.886,-7330.508,-7328.4873,-7320.053,-7318.268,-7328.908,-7325.8413,-7319.6226,-7320.965,-7320.256,-7322.027,-7319.8633,-7318.5723,-7317.073,-7315.9663,-7317.8804,-7317.246,-7324.642,-7326.296,-7325.492,-7327.9287,-7322.2407,-7325.5234,-7326.171,-7321.4697,-7325.5913,-7327.7495,-7326.4937,-7324.3994,-7326.4326,-7329.1914,-7329.858,-7331.2583,-7329.9365,-7328.877,-7323.402,-7323.4707,-7332.867,-7327.6694,-7322.747,-7325.7334,-7321.8145,-7326.9272,-7333.036,-7329.8975,-7328.3066,-7325.6997,-7324.361,-7322.7783,-7327.0234,-7333.9805,-7330.7217,-7326.4136,-7326.306,-7333.7705,-7333.027,-7324.232,-7328.996,-7334.259,-7332.1343,-7324.231,-7323.671,-7329.4526,-7323.055,-7318.1123,-7319.7983,-7325.7734,-7327.0063,-7319.95,-7321.1826,-7322.0566,-7320.119,-7318.802,-7315.497,-7317.651,-7316.5454,-7310.223,-7312.7827,-7321.248,-7322.5107,-7322.221,-7326.056,-7321.817,-7313.882,-7313.396,-7319.5684,-7320.2354,-7313.9556,-7318.86,-7319.098,-7309.314,-7312.356,-7318.564,-7321.903,-7323.369,-7320.487,-7319.5054,-7319.1787,-7322.0864,-7325.6694,-7324.535,-7323.0366,-7323.348,-7324.0747,-7319.976,-7317.548,-7315.196,-7313.1636,-7320.8604,-7318.898,-7315.892,-7320.7163,-7318.137,-7320.2065,-7320.5845,-7319.497,-7324.055,-7324.1396,-7322.007,-7314.958,-7314.1133,-7319.3984,-7318.5337,-7319.023,-7313.1577,-7311.6543,-7323.025,-7325.2944,-7324.066,-7325.26,-7324.5444,-7325.7646,-7324.86,-7322.826,-7324.296,-7324.3735,-7321.5327,-7324.297,-7326.412,-7322.723,-7322.8145,-7322.8833,-7319.546,-7313.117,-7310.1904,-7315.046,-7318.643,-7319.7554,-7315.0596,-7311.8604,-7311.2207,-7308.22,-7316.7026,-7322.23,-7323.811,-7332.1533,-7327.752,-7326.9414,-7336.7305,-7328.6206,-7314.2183,-7316.4434,-7322.197,-7316.58
-7312.353,-7313.127,-7311.2573,-7312.768,-7317.544,-7321.692,-7322.2188,-7318.599,-7316.998,-7316.9907,-7312.131,-7306.8857,-7310.468,-7315.053,-7318.832,-7321.507,-7319.803,-7324.606,-7329.1753,-7327.055,-7319.781,-7313.0435,-7319.482,-7320.9653,-7316.3545,-7319.16,-7318.7173,-7318.702,-7319.938,-7321.9585,-7320.0156,-7312.277,-7319.1084,-7324.8315,-7321.5796,-7317.8896,-7309.2056,-7314.3926,-7318.9478,-7314.634,-7317.6636,-7317.5986,-7321.2866,-7325.297,-7326.8833,-7330.601,-7326.281,-7323.1743,-7322.995,-7320.813,-7321.248,-7323.3125,-7318.0996,-7314.383,-7323.9004,-7329.6167,-7327.1504,-7323.3237,-7326.069,-7324.7427,-7314.2227,-7320.1963,-7320.9424,-7311.028,-7311.206,-7307.3486,-7304.6304,-7305.9697,-7309.6025,-7315.6494,-7314.9194,-7311.5117,-7309.971,-7313.0693,-7312.764,-7305.037,-7304.872,-7308.2227,-7307.1113,-7310.2583,-7315.08,-7318.317,-7318.6753,-7315.0938,-7314.956,-7313.723,-7320.262,-7331.204,-7319.168,-7304.199,-7305.96,-7308.664,-7309.0884,-7315.6533,-7324.9614,-7325.235,-7322.2056,-7323.0635,-7322.517,-7320.1333,-7321.849,-7331.045,-7333.1436,-7318.152,-7306.2705,-7311.914,-7317.0796,-7316.2793,-7321.2075,-7318.459,-7310.7407,-7310.1187,-7308.902,-7310.373,-7312.5,-7316.349,-7319.244,-7316.8086,-7318.936,-7313.8306,-7308.684,-7317.1685,-7320.971,-7315.1772,-7307.0503,-7306.922,-7309.874,-7310.7905,-7319.339,-7322.8354,-7318.2095,-7312.4365,-7309.88,-7316.8037,-7316.837,-7313.188,-7317.333,-7315.8657,-7312.655,-7313.7485,-7310.505,-7309.629,-7316.328,-7317.077,-7315.9863,-7322.8726,-7326.7046,-7325.255,-7324.657,-7328.773,-7330.215,-7323.74,-7323.6387,-7315.5293,-7303.2427,-7309.553,-7310.035,-7313.181,-7323.7524,-7326.5645,-7333.1357,-7330.559,-7330.4624,-7337.4106,-7335.167,-7335.0044,-7335.0537,-7336.425,-7334.966,-7332.914,-7333.3315,-7327.5464,-7323.8057,-7322.968,-7326.45,-7319.831,-7305.3564,-7304.8486,-7304.5483,-7305.8633,-7310.0356,-7313.126,-7314.658,-7308.9507,-7307.042,-7303.8555,-7304.94,-7310.8193,-7307.5625,-7307.974,-7306.5854,-7302.9473,-7303.3525,-7305.3315,-7311.074,-7309.6357,-7309.8486,-7313.393,-7310.8457,-7313.468,-7318.78,-7318.622,-7316.221,-7318.553,-7317.485,-7308.494,-7304.728,-7307.868,-7310.5283,-7307.85,-7306.4233,-7301.983,-7299.329,-7311.2124,-7313.335,-7306.426,-7304.3613,-7305.9473,-7313.01,-7312.528,-7312.954,-7319.047,-7321.158,-7319.551,-7308.3296,-7302.7075,-7309.567,-7309.0195,-7297.744,-7296.948,-7308.78,-7305.5415,-7300.072,-7306.539,-7309.8506,-7312.738,-7312.0557,-7311.7524,-7311.664,-7304.308,-7302.387,-7302.918,-7305.176,-7310.7207,-7308.106,-7304.721,-7307.4097,-7308.435,-7304.99,-7307.4336,-7313.2363,-7308.8784,-7311.5215,-7320.1094,-7317.304,-7315.374,-7310.2036,-7306.343,-7313.699,-7316.3735,-7316.1777,-7316.3633,-7318.36,-7323.9893,-7324.6616,-7322.591,-7324.609,-7327.9697,-7320.334,-7317.1006,-7324.29,-7315.1455,-7308.2544,-7311.198,-7312.994,-7320.0933,-7314.6836,-7312.2837,-7322.421,-7320.1777,-7313.4033,-7312.6953,-7316.559,-7315.7285,-7316.936,-7320.6064,-7319.525,-7322.838,-7312.165,-7305.539,-7312.702,-7311.355,-7319.4565,-7321.5645,-7319.5815,-7325.903,-7321.6304,-7314.4863,-7309.0024,-7311.3164,-7311.516,-7311.858,-7322.478,-7321.3833,-7320.3237,-7322.839,-7320.417,-7316.844,-7311.7935,-7318.1553,-7323.4565,-7318.9683,-7319.655,-7320.6826,-7317.4673,-7315.8213,-7313.962,-7308.562,-7304.3594,-7305.783,-7309.571,-7312.0107,-7316.3535,-7318.0547,-7312.7134,-7307.2173,-7305.8545,-7314.5596,-7322.29,-7322.5186,-7325.4614,-7322.4272,-7323.646,-7331.254,-7323.1147,-7315.108,-7319.206,-7323.975,-7325.7695,-7321.307,-7318.8984,-7326.621,-7328.8037,-7324.3,-7321.938,-7318.901,-7320.4316,-7322.497,-7327.943,-7334.4194,-7329.5356,-7327.259,-7326.556,-7325.906,-7328.0254,-7324.146,-7322.584,-7323.099,-7319.503,-7316.539,-7319.966,-7324.17,-7323.288,-7327.5996,-7333.3584,-7331.032,-7324.4956,-7315.366,-7308.983,-7319.3403,-7331.036,-7324.779,-7325.4453,-7328.3154,-7324.2847,-7327.0303,-7324.203,-7322.8345,-7318.805,-7312.3506,-7318.5947,-7324.5806,-7327.611,-7319.6104,-7316.3037,-7324.1255,-7319.06,-7316.621,-7322.257,-7331.4033,-7329.241,-7308.0107,-7307.9556,-7328.4277,-7332.0215,-7324.5894,-7325.3027,-7326.733,-7330.498,-7336.2793,-7334.666,-7334.2637,-7330.4775,-7327.2144,-7327.132,-7322.3564,-7323.795,-7326.476,-7328.639,-7334.262,-7333.904,-7326.003,-7323.2197,-7327.0864,-7324.333,-7321.3384,-7320.9927,-7323.1187,-7325.7593,-7322.3154,-7322.2935,-7324.4136,-7325.1694,-7323.1,-7323.245,-7326.4526,-7323.0586,-7325.4644,-7331.3403,-7333.8086,-7332.2593,-7326.797,-7329.8193,-7333.3745,-7337.231,-7337.844,-7333.138,-7334.3306,-7328.6797,-7324.3286,-7322.3135,-7321.164,-7326.7593,-7323.012,-7327.89,-7334.696,-7327.142,-7322.0503,-7320.673,-7330.6084,-7335.459,-7327.5806,-7326.765,-7330.0195,-7334.8457,-7334.486,-7330.1216,-7332.208,-7337.875,-7336.933,-7332.495,-7334.37,-7334.2285,-7338.0225,-7339.9546,-7333.946,-7340.619,-7342.731,-7336.2793,-7338.6704,-7339.792,-7339.2046,-7339.615,-7343.987,-7346.475,-7334.046,-7327.202,-7338.0254,-7345.329,-7342.481,-7343.323,-7347.204,-7343.2827,-7341.14,-7342.2886,-7338.7935,-7335.866,-7332.218,-7333.805,-7334.8657,-7329.0713,-7334.1484,-7339.2393,-7342.335,-7349.186,-7342.2905,-7336.023,-7336.6636,-7333.9443,-7333.442,-7332.837,-7335.849,-7337.74,-7337.0205,-7341.407,-7340.235,-7339.634,-7340.4443,-7338.2354,-7344.389,-7344.896,-7337.075,-7338.4253,-7340.0396,-7335.885,-7336.3276,-7341.4453,-7346.3286,-7345.764,-7339.142,-7336.3022,-7340.0425,-7341.032,-7336.4395,-7333.7007,-7330.4214,-7329.1714,-7330.2866,-7325.255,-7328.667,-7333.828,-7327.164,-7324.1714,-7327.305,-7332.7515,-7331.8877,-7327.0566,-7327.132,-7325.315,-7328.185,-7330.272,-7328.1465,-7331.0977,-7328.7036,-7327.351,-7327.9673,-7328.091,-7337.948,-7338.199,-7331.3164,-7329.9165,-7327.9907,-7330.986,-7327.539,-7321.9077,-7326.601,-7328.7134,-7327.6045,-7326.821,-7322.204,-7317.596,-7325.222,-7331.3496,-7325.6626,-7325.6343,-7326.712,-7324.4395,-7322.152,-7322.19,-7324.4614,-7322.386,-7323.1304,-7321.012,-7320.3843,-7330.8315,-7332.6665,-7333.7373,-7342.0977,-7339.4336,-7327.028,-7319.465,-7330.03,-7340.3926,-7330.632,-7326.881,-7331.6025,-7332.61,-7336.0054,-7331.794,-7331.261,-7335.5684,-7327.033,-7329.7524,-7340.794,-7335.9937,-7329.4116,-7330.1396,-7331.167,-7330.4873,-7329.946,-7330.102,-7335.8804,-7339.7856,-7333.396,-7330.1055,-7331.539,-7335.875,-7341.837,-7341.554,-7335.96,-7330.984,-7333.4434,-7334.4272,-7334.619,-7337.9297,-7336.7183,-7341.3535,-7342.624,-7335.7695,-7331.957,-7331.5156,-7340.046,-7340.1685,-7334.0205,-7336.79,-7337.0044,-7335.7593,-7331.42,-7330.415,-7335.2754,-7331.9614,-7326.511,-7327.475,-7327.548,-7315.6143,-7311.9434,-7322.6553,-7323.4214,-7329.452,-7335.6763,-7328.7734,-7330.4307,-7331.9565,-7330.3843,-7330.144,-7328.4136,-7327.8477,-7320.047,-7320.536,-7328.706,-7330.3403,-7331.37,-7326.046,-7322.4224,-7325.251,-7325.449,-7321.8228,-7317.9653,-7319.2534,-7321.158,-7321.6304,-7325.6245,-7332.7075,-7332.328,-7328.261,-7331.0854,-7331.9995,-7329.4517,-7326.678,-7327.0347,-7328.6763,-7323.5303,-7320.9653,-7323.338,-7324.682,-7328.725,-7335.9053,-7340.5293,-7334.7334,-7324.614,-7322.2476,-7324.964,-7330.088,-7330.9497,-7328.115,-7334.0024,-7333.5513,-7324.381,-7325.7725,-7331.7144,-7336.0547,-7335.341,-7333.123,-7338.998,-7344.503,-7342.0312,-7333.273,-7330.623,-7332.972,-7326.38,-7320.4863,-7321.9287,-7327.1265,-7332.758,-7330.7275,-7325.6323,-7324.7334,-7324.4653,-7324.641,-7325.5205,-7325.6914,-7327.4297,-7330.6646,-7333.0815,-7329.8706,-7325.481,-7330.2383,-7339.0503,-7344.283,-7339.6577,-7325.6216,-7325.1514,-7338.01,-7333.1934,-7325.069,-7331.171,-7331.997,-7333.164,-7336.786,-7337.908,-7336.551,-7328.78,-7328.3257,-7336.2544,-7342.112,-7338.645,-7336.936,-7337.8633,-7326.798,-7326.138,-7332.323,-7332.197,-7331.9956,-7328.4917,-7329.117,-7330.6743,-7332.5557,-7328.351,-7321.9224,-7326.465,-7322.9033,-7320.832,-7326.6914,-7326.9287,-7324.2427,-7318.6006,-7320.1655,-7322.161,-7319.2397,-7320.594,-7325.902,-7334.205,-7331.404,-7324.99,-7324.8037,-7322.039,-7324.387,-7330.924,-7332.658,-7330.9976,-7329.3433,-7324.5234,-7323.1953,-7328.567,-7329.588,-7328.092,-7323.2246,-7320.9253,-7325.117,-7326.175,-7327.993,-7328.1587,-7322.637,-7322.0356,-7328.175,-7332.155,-7335.4136,-7337.8687,-7335.6846,-7334.6016,-7333.7407,-7330.4536,-7329.445,-7331.0264,-7329.3765,-7331.6357,-7336.8447,-7330.2637,-7327.5884,-7332.6587,-7332.4707,-7326.886,-7318.634,-7324.8506,-7330.4014,-7323.393,-7325.9863,-7328.4736,-7329.326,-7334.7905,-7336.3076,-7334.9463,-7331.109,-7332.8184,-7337.2803,-7335.036,-7334.115,-7335.8213,-7333.1016,-7327.6055,-7326.926,-7330.6675,-7334.086,-7332.78,-7331.145,-7332.918,-7330.679,-7333.174,-7336.1377,-7331.348,-7332.5933,-7333.0737,-7333.069,-7336.332,-7331.025,-7327.513,-7333.569,-7335.9995,-7331.208,-7329.754,-7331.3027,-7332.8096,-7335.0356,-7335.102,-7339.5796,-7341.645,-7335.843,-7333.296,-7329.0005,-7326.804,-7331.6494,-7331.812,-7327.372,-7327.138,-7333.273,-7332.453,-7329.5674,-7334.541,-7331.2373,-7327.12,-7327.7427,-7326.678,-7327.229,-7322.599,-7325.911,-7334.4214,-7331.1133,-7331.275,-7332.4614,-7331.6875,-7332.52,-7329.705,-7334.9517,-7345.595,-7346.181,-7332.2554,-7320.7847,-7327.337,-7335.244,-7337.2354,-7334.474,-7331.484,-7335.6265,-7337.8354,-7340.064,-7339.7285,-7334.1333,-7330.873,-7330.006,-7336.95,-7337.5557,-7330.125,-7334.361,-7340.6064,-7337.3296,-7328.124,-7335.605,-7348.0835,-7339.7974,-7338.9043,-7342.435,-7341.825,-7345.2495,-7341.021,-7338.598,-7338.5454,-7338.1553,-7337.751,-7335.179,-7333.428,-7327.0044,-7328.9834,-7334.4,-7333.483,-7336.594,-7335.156,-7334.933,-7340.0674,-7339.5205,-7335.3154,-7332.43,-7333.0176,-7331.597,-7327.5293,-7325.722,-7327.9014,-7329.799,-7328.6133,-7336.242,-7343.7554,-7333.5103,-7330.481,-7340.744,-7333.502,-7327.798,-7335.5967,-7333.2583,-7335.5596,-7339.531,-7333.199,-7333.843,-7340.814,-7343.3125,-7336.783,-7334.7188,-7338.0034,-7337.498,-7342.0044,-7344.0723,-7342.0186,-7337.9307,-7335.2646,-7340.523,-7338.9966,-7336.131,-7337.772,-7336.595,-7333.8486,-7327.5493,-7327.544,-7333.931,-7336.0527,-7337.0117,-7340.0195,-7346.4575,-7342.6445,-7326.0015,-7326.9116,-7334.543,-7326.305,-7322.3247,-7321.4595,-7324.13,-7333.8843,-7330.898,-7324.7637,-7324.277,-7326.784,-7331.058,-7330.643,-7334.3896,-7333.061,-7326.248,-7326.896,-7324.9863,-7324.9907,-7326.183,-7327.301,-7330.3794,-7329.759,-7329.861,-7326.326,-7329.1035,-7336.187,-7331.729,-7327.429,-7327.828,-7330.836,-7331.4893,-7332.3447,-7336.1543,-7334.432,-7330.517,-7328.4146,-7331.909,-7332.5522,-7328.84,-7328.9365,-7328.0786,-7335.44,-7342.1196,-7338.545,-7339.5303,-7338.5146,-7334.315,-7337.8315,-7344.6055,-7346.888,-7343.2104,-7339.7896,-7344.9614,-7352.3486,-7348.224,-7339.555,-7341.3555,-7348.823,-7354.4023,-7358.7407,-7352.439,-7344.7812,-7345.278,-7339.853,-7346.7583,-7360.173,-7353.2056,-7347.82,-7349.462,-7350.934,-7351.349,-7342.4756,-7340.646,-7350.1484,-7348.7124,-7345.0073,-7350.368,-7348.286,-7345.1177,-7346.8574,-7348.5913,-7354.6865,-7353.4814,-7350.4,-7354.131,-7355.369,-7353.454,-7348.011,-7350.81,-7359.444,-7360.3955,-7362.7646,-7362.274,-7355.281,-7353.1113,-7357.026,-7360.4585,-7358.753,-7359.126,-7364.1016,-7370.309,-7373.837,-7367.9243,-7360.407,-7362.8545,-7375.0293,-7375.292,-7368.233,-7378.5757,-7379.9863,-7370.71,-7369.6025,-7368.2163,-7365.7607,-7359.5166,-7360.454,-7362.3125,-7357.7563,-7358.6704,-7353.353,-7349.72,-7354.6636,-7355.7446,-7354.0747,-7358.1196,-7365.136,-7361.063,-7354.6704,-7352.998,-7354.376,-7356.522,-7353.5093,-7357.956,-7364.3687,-7361.89,-7357.985,-7352.71,-7354.9487,-7361.1655,-7357.172,-7358.1035,-7362.4175,-7355.941,-7353.2695,-7355.377,-7357.259,-7358.4497,-7357.1543,-7363.298,-7363.474,-7352.586,-7346.492,-7347.0874,-7353.4785,-7357.7847,-7361.5312,-7368.31,-7368.9854,-7361.702,-7359.7036,-7367.216,-7369.2847,-7370.3667,-7368.9155,-7363.248,-7365.9736,-7365.7173,-7360.5547,-7357.554,-7358.52,-7350.5317,-7339.0146,-7354.364,-7363.002,-7353.361,-7350.2456,-7348.462,-7354.355,-7353.132,-7348.519,-7353.9653,-7354.7993,-7353.2974,-7354.241,-7364.6777,-7366.4556,-7357.578,-7357.045,-7355.169,-7359.845,-7358.216,-7348.574,-7352.6855,-7352.385,-7350.549,-7357.0996,-7359.9873,-7356.2915,-7352.93,-7353.2476,-7350.867,-7350.733,-7353.1577,-7354.135,-7359.563,-7364.796,-7363.3335,-7356.609,-7354.547,-7358.773,-7362.8213,-7367.209,-7365.462,-7362.7183,-7362.3286,-7358.8003,-7359.392,-7355.318,-7353.642,-7363.5156,-7366.1577,-7367.838,-7362.8315,-7352.7036,-7356.143,-7355.6963,-7356.301,-7357.3633,-7349.3315,-7346.073,-7341.811,-7345.066
-7353.9272,-7349.5,-7344.264,-7348.69,-7353.883,-7348.0195,-7343.7607,-7351.0254,-7355.551,-7360.7363,-7363.5713,-7357.9595,-7363.8374,-7372.0977,-7363.4814,-7351.0645,-7348.1055,-7354.2617,-7357.9946,-7361.2573,-7367.0684,-7368.3447,-7366.3735,-7363.681,-7365.637,-7359.534,-7353.971,-7358.4517,-7350.2983,-7353.6973,-7359.0884,-7346.927,-7353.6123,-7358.7007,-7350.943,-7355.0483,-7360.967,-7358.5625,-7356.1147,-7360.419,-7360.1567,-7360.867,-7363.2446,-7359.5483,-7366.3657,-7370.037,-7363.865,-7367.5493,-7371.7837,-7367.8633,-7365.578,-7365.0156,-7364.3174,-7372.2397,-7373.851,-7367.412,-7374.389,-7380.5825,-7382.3916,-7384.781,-7385.8945,-7390.13,-7384.239,-7379.652,-7380.5215,-7374.1875,-7376.1787,-7375.3877,-7369.0825,-7369.1494,-7361.1914,-7353.172,-7353.9917,-7357.2065,-7354.548,-7350.233,-7355.696,-7357.7075,-7359.115,-7360.8633,-7358.585,-7360.0947,-7354.937,-7349.416,-7351.403,-7360.986,-7365.3867,-7356.205,-7359.5806,-7361.6113,-7356.4707,-7355.4116,-7350.739,-7357.9395,-7359.8774,-7350.397,-7351.7783,-7354.7163,-7354.141,-7352.707,-7357.0483,-7360.0474,-7357.968,-7362.7896,-7366.4966,-7370.6616,-7374.3145,-7372.0015,-7372.474,-7369.5415,-7362.6357,-7359.7866,-7362.112,-7367.5635,-7364.6753,-7359.8784,-7367.661,-7367.784,-7348.875,-7345.428,-7363.0464,-7361.454,-7349.769,-7353.884,-7360.9297,-7364.0073,-7359.298,-7355.347,-7356.6523,-7359.5835,-7364.259,-7359.415,-7361.963,-7367.322,-7362.1504,-7360.7485,-7359.074,-7365.4927,-7369.6914,-7367.21,-7372.5913,-7370.7686,-7369.6167,-7367.1816,-7361.1333,-7367.342,-7365.7905,-7360.023,-7363.886,-7366.2764,-7362.505,-7356.474,-7364.2383,-7371.025,-7364.833,-7364.308,-7366.25,-7368.7817,-7367.683,-7361.069,-7359.966,-7364.754,-7369.834,-7368.536,-7367.395,-7369.9424,-7372.658,-7369.746,-7365.393,-7372.084,-7369.109,-7359.6616,-7363.2583,-7365.899,-7367.7607,-7370.7627,-7370.9824,-7373.174,-7374.474,-7369.768,-7364.9375,-7364.831,-7360.5664,-7349.856,-7345.3657,-7352.224,-7360.1553,-7364.544,-7361.0273,-7355.7236,-7357.015,-7350.0527,-7346.3394,-7352.71,-7354.5947,-7361.585,-7367.0986,-7355.503,-7346.8804,-7358.548,-7363.1675,-7356.225,-7355.3193,-7353.6416,-7362.224,-7367.804,-7359.5527,-7360.5645,-7366.3247,-7371.6343,-7366.565,-7359.917,-7366.2905,-7371.97,-7374.934,-7366.242,-7361.4976,-7363.8667,-7353.5225,-7348.921,-7350.3784,-7356.567,-7359.759,-7352.5205,-7351.578,-7351.7236,-7354.1987,-7355.7593,-7359.2773,-7365.0312,-7357.5483,-7359.429,-7365.238,-7364.726,-7365.105,-7355.8853,-7359.141,-7361.601,-7353.6216,-7358.7437,-7359.672,-7363.1416,-7363.44,-7357.961,-7361.0713,-7358.6514,-7362.282,-7356.0127,-7344.906,-7353.6143,-7355.6187,-7353.7427,-7354.779,-7359.004,-7361.8223,-7360.114,-7359.5605,-7352.0586,-7352.8306,-7354.8267,-7356.466,-7366.449,-7363.6973,-7361.886,-7369.5547,-7378.233,-7376.496,-7364.409,-7367.624,-7370.758,-7363.787,-7360.4443,-7357.8975,-7358.6055,-7356.8906,-7351.4434,-7352.937,-7359.387,-7359.9194,-7357.028,-7360.2593,-7359.799,-7357.21,-7357.8804,-7356.7754,-7357.6167,-7355.4673,-7352.9985,-7353.5703,-7353.684,-7349.7905,-7344.79,-7354.93,-7360.018,-7353.209,-7356.906,-7360.42,-7360.9326,-7357.9697,-7350.7886,-7354.1626,-7361.6826,-7367.3374,-7370.4194,-7357.6187,-7343.777,-7351.2764,-7357.4795,-7352.167,-7350.0815,-7344.073,-7342.323,-7351.185,-7355.8657,-7358.554,-7356.616,-7355.0376,-7358.9683,-7359.584,-7363.777,-7363.029,-7357.893,-7359.3145,-7356.8687,-7358.518,-7364.3687,-7365.7676,-7367.055,-7365.93,-7364.574,-7358.5117,-7352.0703,-7359.55,-7365.101,-7360.2217,-7356.0757,-7356.974,-7360.2188,-7351.793,-7344.7725,-7352.8486,-7352.071,-7347.6387,-7352.0293,-7354.311,-7351.091,-7347.3096,-7351.2817,-7355.5166,-7354.13,-7347.0396,-7344.8525,-7360.11,-7366.5347,-7361.9966,-7363.268,-7359.846,-7354.0996,-7351.2944,-7356.2417,-7369.019,-7372.3237,-7366.491,-7364.063,-7365.148,-7360.97,-7353.0454,-7356.0654,-7367.767,-7374.043,-7367.8384,-7360.6724,-7364.7915,-7365.979,-7366.2095,-7369.209,-7365.497,-7364.15,-7368.5825,-7381.3047,-7390.7666,-7381.4785,-7371.708,-7370.5503,-7366.0,-7356.353,-7354.6523,-7357.6885,-7358.054,-7358.8794,-7354.959,-7357.726,-7365.315,-7363.4453,-7361.889,-7360.65,-7359.7427,-7357.1157,-7348.891,-7349.387,-7359.6807,-7367.2275,-7365.985,-7364.3467,-7368.4683,-7369.5547,-7367.5703,-7363.939,-7363.727,-7372.131,-7369.8574,-7354.4443,-7357.5825,-7376.1973,-7374.4253,-7366.18,-7369.037,-7367.657,-7365.438,-7359.5923,-7357.0903,-7358.71,-7352.072,-7353.0728,-7354.4424,-7352.013,-7352.848,-7353.996,-7357.0967,-7352.746,-7350.154,-7351.0586,-7349.704,-7356.917,-7358.4233,-7352.339,-7355.839,-7361.8345,-7363.72,-7361.137,-7356.9556,-7356.8228,-7354.588,-7353.184,-7355.7715,-7358.8755,-7359.522,-7354.15,-7356.4453,-7361.3335,-7359.5503,-7358.968,-7357.2563,-7359.3247,-7356.066,-7349.772,-7351.169,-7345.763,-7343.0264,-7342.876,-7343.2495,-7348.1846,-7341.557,-7339.8643,-7348.188,-7350.59,-7349.241,-7348.3926,-7356.0513,-7358.2373,-7348.286,-7343.293,-7344.3228,-7350.13,-7353.9395,-7352.019,-7354.3457,-7355.9976,-7350.485,-7352.0996,-7364.874,-7363.244,-7347.4434,-7342.383,-7344.606,-7348.7485,-7355.592,-7358.124,-7359.7803,-7362.882,-7358.4966,-7353.7065,-7355.6797,-7352.943,-7350.3643,-7354.489,-7355.371,-7348.8623,-7343.977,-7344.321,-7344.673,-7347.0874,-7346.9624,-7347.0566,-7348.7505,-7347.382,-7351.57,-7352.6626,-7353.8564,-7358.9497,-7352.8774,-7350.5327,-7353.7427,-7350.501,-7352.794,-7358.3657,-7357.669,-7357.0815,-7356.154,-7353.2095,-7356.448,-7359.281,-7353.7876,-7349.3193,-7352.064,-7356.2505,-7357.0205,-7356.971,-7355.0986,-7352.2505,-7347.421,-7343.798,-7350.284,-7357.1924,-7360.363,-7359.608,-7352.7285,-7348.74,-7348.8096,-7353.027,-7358.8486,-7358.9575,-7356.842,-7355.7124,-7352.814,-7352.9727,-7354.0845,-7351.0396,-7354.9937,-7356.0195,-7350.1963,-7353.5337,-7356.449,-7356.9336,-7356.049,-7352.8755,-7353.403,-7348.535,-7343.246,-7346.047,-7351.996,-7355.31,-7351.4136,-7351.1714,-7354.6895,-7352.403,-7355.479,-7360.64,-7362.079,-7367.9395,-7362.0103,-7353.7886,-7360.3857,-7361.913,-7361.758,-7359.599,-7354.175,-7355.063,-7352.0586,-7349.3994,-7355.602,-7366.605,-7364.713,-7350.334,-7349.6143,-7356.8643,-7357.1055,-7355.121,-7357.3135,-7355.7183,-7349.7764,-7350.008,-7351.6553,-7358.4395,-7366.199,-7364.6206,-7364.455,-7366.804,-7364.275,-7360.208,-7359.5796,-7357.193,-7354.641,-7353.9023,-7351.419,-7352.251,-7354.5195,-7356.419,-7356.4736,-7357.696,-7356.7812,-7351.8228,-7356.422,-7355.4165,-7349.8267,-7351.271,-7350.7944,-7349.3916,-7343.4443,-7344.5923,-7349.4,-7344.843,-7341.1343,-7342.1,-7353.7856,-7362.078,-7359.0444,-7359.903,-7359.514,-7352.5757,-7345.661,-7345.5054,-7346.4507,-7343.0146,-7341.555,-7342.952,-7342.0317,-7341.408,-7344.558,-7340.101,-7341.2515,-7352.1,-7344.509,-7336.7354,-7343.434,-7349.082,-7348.6577,-7344.76,-7347.412,-7344.447,-7343.339,-7356.3105,-7356.421,-7349.08,-7340.2305,-7331.608,-7338.233,-7341.1367,-7344.716,-7347.065,-7335.9033,-7337.6953,-7338.981,-7336.3916,-7340.799,-7339.6675,-7347.0117,-7346.4614,-7332.3594,-7327.768,-7328.4644,-7332.0967,-7331.665,-7336.9414,-7344.3823,-7339.2383,-7339.7983,-7338.683,-7330.891,-7324.768,-7326.682,-7341.725,-7340.7324,-7330.407,-7336.207,-7340.704,-7342.1455,-7348.2266,-7341.422,-7320.829,-7323.628,-7342.61,-7338.413,-7330.2563,-7330.795,-7331.2036,-7338.5264,-7347.224,-7347.3203,-7338.5327,-7341.331,-7349.5796,-7348.095,-7353.5728,-7348.2476,-7337.4526,-7341.987,-7339.518,-7333.7495,-7331.4785,-7334.241,-7342.1406,-7339.645,-7337.411,-7342.3228,-7347.398,-7348.7476,-7340.043,-7336.6074,-7342.6724,-7339.5054,-7336.02,-7342.0186,-7343.957,-7344.865,-7349.1484,-7346.371,-7339.5767,-7337.157,-7337.191,-7335.447,-7339.1914,-7345.8228,-7343.04,-7341.1104,-7344.353,-7342.6934,-7338.3076,-7344.9507,-7356.705,-7357.608,-7355.597,-7349.626,-7341.4663,-7338.7607,-7336.832,-7346.523,-7357.352,-7354.23,-7352.817,-7352.3394,-7354.1616,-7360.182,-7356.978,-7354.3784,-7355.1094,-7351.809,-7350.4062,-7344.6304,-7337.9795,-7340.5337,-7343.4546,-7342.6943,-7342.7896,-7346.735,-7349.447,-7346.6016,-7342.569,-7341.915,-7346.008,-7343.1943,-7339.9946,-7346.7764,-7344.9673,-7342.035,-7345.8457,-7347.025,-7350.637,-7349.2705,-7342.8096,-7342.963,-7345.3286,-7343.0537,-7342.0327,-7344.4287,-7343.6772,-7342.2715,-7339.8213,-7341.6216,-7348.2236,-7347.5684,-7346.29,-7349.809,-7353.508,-7346.5645,-7331.124,-7330.313,-7339.715,-7341.172,-7339.9106,-7345.3843,-7350.3857,-7348.9233,-7346.1543,-7346.3823,-7348.6987,-7345.4707,-7340.0586,-7340.602,-7342.401,-7340.679,-7340.9272,-7344.6704,-7345.109,-7347.5312,-7349.402,-7344.585,-7341.4785,-7339.573,-7337.032,-7337.3823,-7342.302,-7343.52,-7340.844,-7346.0713,-7348.3423,-7343.509,-7341.7715,-7344.3394,-7346.722,-7342.83,-7344.0005,-7349.8623,-7347.7847,-7345.2188,-7344.8726,-7344.726,-7344.0586,-7341.7476,-7341.9917,-7348.209,-7351.338,-7342.7734,-7340.486,-7343.7803,-7341.1816,-7342.915,-7343.88,-7343.9526,-7339.708,-7333.191,-7341.1646,-7347.8,-7353.6216,-7356.264,-7342.2603,-7334.9263,-7337.5713,-7340.193,-7337.3647,-7335.383,-7337.974,-7329.423,-7331.879,-7344.1187,-7340.312,-7333.9653,-7330.7095,-7332.73,-7335.9443,-7332.8735,-7330.9834,-7333.0986,-7340.2974,-7340.414,-7335.155,-7336.294,-7334.853,-7337.884,-7341.5874,-7344.7734,-7356.801,-7350.647,-7334.926,-7331.0728,-7332.259,-7338.2417,-7337.367,-7337.539,-7339.4404,-7333.8438,-7330.557,-7331.3613,-7338.832,-7335.136,-7330.8413,-7339.334,-7336.554,-7335.807,-7338.467,-7341.4067,-7344.33,-7339.337,-7341.507,-7342.247,-7341.028,-7340.6543,-7338.494,-7338.3887,-7331.922,-7330.837,-7330.5337,-7330.309,-7334.108,-7324.004,-7322.34,-7330.353,-7328.9756,-7328.512,-7327.783,-7331.2295,-7332.448,-7325.9146,-7328.525,-7334.3105,-7335.7207,-7331.5063,-7324.413,-7326.932,-7330.3833,-7328.3657,-7331.4023,-7335.6084,-7332.2227,-7328.3496,-7331.8735,-7333.1924,-7327.605,-7325.803,-7325.8545,-7325.4526,-7325.139,-7320.6562,-7324.3237,-7334.517,-7335.981,-7334.8696,-7336.87,-7338.8037,-7338.627,-7336.86,-7334.849,-7333.911,-7335.1943,-7334.6216,-7333.793,-7336.6514,-7335.2646,-7330.3003,-7332.614,-7336.1396,-7332.143,-7330.833,-7334.6616,-7336.2993,-7339.518,-7338.3516,-7332.6416,-7334.301,-7334.845,-7331.2124,-7332.1504,-7339.354,-7343.737,-7339.4736,-7340.472,-7346.2974,-7347.4487,-7342.01,-7336.4106,-7340.148,-7338.4937,-7336.2334,-7342.3496,-7345.3467,-7348.9473,-7346.435,-7341.442,-7340.2114,-7338.178,-7337.344,-7331.908,-7332.3525,-7330.6533,-7322.401,-7325.7505,-7329.7314,-7334.6978,-7335.571,-7333.4595,-7338.0664,-7331.8213,-7327.6577,-7331.1826,-7331.5635,-7332.2593,-7330.176,-7331.017,-7332.7725,-7331.9346,-7330.414,-7332.492,-7336.2295,-7334.3877,-7337.258,-7337.387,-7337.7666,-7342.9873,-7338.159,-7337.8403,-7338.223,-7335.678,-7339.6626,-7336.767,-7334.448,-7335.0166,-7328.9756,-7324.258,-7325.857,-7330.0474,-7330.2583,-7330.5474,-7334.337,-7336.042,-7332.382,-7330.1147,-7336.385,-7339.2456,-7336.762,-7332.181,-7324.932,-7324.12,-7322.561,-7324.685,-7331.303,-7325.477,-7323.7515,-7326.3457,-7324.7344,-7325.372,-7320.485,-7323.1104,-7327.4546,-7324.782,-7328.333,-7326.496,-7326.2383,-7324.9595,-7317.4033,-7319.801,-7324.6904,-7328.51,-7322.806,-7317.7573,-7322.707,-7319.3755,-7320.6494,-7323.4634,-7326.3574,-7332.512,-7322.3784,-7318.9365,-7327.587,-7327.675,-7324.096,-7321.331,-7324.2593,-7326.403,-7328.951,-7332.7896,-7326.543,-7320.558,-7318.155,-7317.0195,-7315.272,-7317.434,-7326.1133,-7321.417,-7324.614,-7336.944,-7324.5493,-7314.06,-7319.7383,-7322.3984,-7316.0234,-7312.2373,-7320.4233,-7327.225,-7331.208,-7329.8936,-7324.677,-7325.2974,-7329.754,-7338.1436,-7340.036,-7334.939,-7333.6675,-7335.7266,-7335.916,-7330.8677,-7331.335,-7336.3594,-7336.318,-7337.2935,-7337.6553,-7336.7646,-7336.986,-7333.1533,-7336.2583,-7343.083,-7336.849,-7329.104,-7327.3984,-7330.128,-7332.514,-7332.056,-7334.8564,-7336.246,-7342.5674,-7342.639,-7328.7427,-7329.697,-7332.9277,-7327.656,-7329.651,-7335.2905,-7344.111,-7344.8164,-7339.1377,-7345.7983,-7352.695,-7350.6387,-7346.5337,-7343.293,-7342.82,-7343.4497,-7347.8345,-7355.311,-7356.045,-7353.46,-7354.043,-7357.7095,-7363.8423,-7360.1426,-7351.9766,-7358.9087,-7365.899,-7361.1978,-7353.096,-7346.6265,-7349.205,-7350.412,-7346.9307,-7344.9604,-7343.6826,-7351.933,-7352.923,-7344.123,-7342.0146,-7338.1445,-7331.3022,-7321.737,-7323.286,-7326.964,-7318.218,-7320.987,-7323.959,-7326.3774,-7334.001,-7336.6763,-7342.482,-7338.7896,-7336.6343,-7341.466,-7339.311,-7343.871,-7344.1714,-7340.6924,-7342.4253,-7339.6445,-7340.288,-7338.128,-7336.0723,-7341.531,-7339.9316,-7337.9946,-7334.4,-7329.5977,-7331.442,-7333.269
-7341.598,-7342.4263,-7334.851,-7334.7734,-7335.19,-7341.1816,-7340.928,-7338.944,-7347.397,-7344.407,-7338.4907,-7338.4766,-7343.2764,-7349.9297,-7348.9287,-7352.9043,-7351.97,-7338.0415,-7333.4062,-7343.3994,-7349.564,-7343.9414,-7341.911,-7338.498,-7334.7886,-7334.9155,-7330.747,-7338.7944,-7347.3022,-7344.375,-7342.5845,-7342.9756,-7346.68,-7344.5967,-7343.3813,-7345.6704,-7342.129,-7337.94,-7333.914,-7339.3906,-7344.6523,-7339.712,-7337.772,-7337.8574,-7346.6484,-7353.155,-7346.0796,-7348.313,-7352.5176,-7345.2314,-7340.1533,-7343.7417,-7348.142,-7347.026,-7348.6694,-7351.9814,-7351.2734,-7348.3706,-7341.439,-7341.8584,-7344.9814,-7340.367,-7340.437,-7340.7944,-7343.156,-7348.527,-7345.1025,-7340.568,-7342.3643,-7349.7725,-7347.083,-7341.168,-7348.287,-7350.0693,-7353.8955,-7356.569,-7349.9897,-7347.365,-7337.9253,-7338.3955,-7344.8457,-7338.9043,-7340.1514,-7339.6665,-7336.183,-7335.3057,-7335.749,-7342.057,-7345.276,-7348.2646,-7347.0845,-7340.9985,-7340.7524,-7341.934,-7341.375,-7342.5854,-7346.0024,-7343.904,-7341.149,-7345.134,-7348.6074,-7352.097,-7356.371,-7357.124,-7354.8804,-7351.7812,-7351.0103,-7352.3105,-7349.7456,-7345.583,-7346.12,-7347.7837,-7348.341,-7351.349,-7355.259,-7355.447,-7355.1245,-7357.398,-7360.052,-7359.456,-7351.9604,-7346.866,-7345.968,-7345.6074,-7357.369,-7361.886,-7348.3765,-7348.4224,-7352.823,-7347.4326,-7349.281,-7354.062,-7356.706,-7356.9634,-7348.229,-7343.7905,-7356.026,-7359.5537,-7346.6626,-7345.6416,-7350.2456,-7348.805,-7345.7266,-7347.6084,-7358.4854,-7359.3306,-7360.141,-7362.533,-7354.742,-7356.1685,-7353.7104,-7350.0547,-7353.445,-7349.758,-7348.57,-7346.9214,-7352.4546,-7355.518,-7343.8486,-7345.0283,-7348.628,-7346.837,-7346.3877,-7345.218,-7351.891,-7355.9487,-7353.866,-7352.7227,-7350.2593,-7344.359,-7343.6616,-7353.0693,-7354.1924,-7345.2383,-7339.5986,-7344.612,-7355.8306,-7360.809,-7356.3525,-7344.053,-7340.576,-7345.6133,-7342.3394,-7338.7944,-7341.333,-7344.2812,-7342.9175,-7343.9365,-7349.6064,-7346.174,-7340.1685,-7345.7686,-7353.905,-7351.626,-7344.3506,-7344.904,-7348.5327,-7348.5796,-7346.383,-7342.669,-7343.6763,-7343.2603,-7340.2275,-7347.189,-7350.751,-7347.1626,-7350.9688,-7346.7197,-7337.344,-7342.211,-7341.222,-7336.591,-7342.413,-7343.2417,-7342.228,-7343.783,-7345.7905,-7348.019,-7346.18,-7346.256,-7350.3237,-7352.7144,-7348.2197,-7345.2446,-7350.028,-7351.25,-7348.334,-7351.61,-7356.4185,-7352.1665,-7352.6606,-7354.459,-7347.972,-7349.7637,-7351.637,-7353.9834,-7362.031,-7360.4043,-7352.8438,-7353.137,-7362.802,-7362.443,-7362.1353,-7372.001,-7365.6143,-7357.2373,-7354.204,-7351.2144,-7361.3184,-7362.501,-7352.2163,-7357.5723,-7368.368,-7358.581,-7352.173,-7368.1006,-7362.903,-7350.2964,-7353.232,-7344.339,-7350.7856,-7362.5283,-7354.838,-7360.781,-7365.676,-7365.0254,-7366.127,-7359.5693,-7360.883,-7353.3647,-7341.529,-7350.1387,-7357.697,-7355.5615,-7355.0396,-7359.3394,-7360.1045,-7353.735,-7349.789,-7354.597,-7357.087,-7350.4453,-7353.3564,-7358.729,-7350.8657,-7340.051,-7339.5195,-7349.5083,-7353.1733,-7354.898,-7357.1606,-7355.342,-7360.238,-7362.5996,-7361.062,-7363.3525,-7363.1753,-7357.516,-7350.4395,-7353.5693,-7357.1284,-7350.6606,-7352.2417,-7356.221,-7355.751,-7360.692,-7360.347,-7360.8794,-7359.9453,-7347.6543,-7350.247,-7361.3193,-7363.4453,-7361.507,-7357.8545,-7360.3726,-7361.124,-7356.749,-7357.3345,-7361.114,-7358.8726,-7354.4067,-7353.0786,-7347.7397,-7348.4033,-7349.787,-7347.068,-7351.593,-7350.365,-7348.396,-7349.211,-7345.983,-7348.923,-7353.311,-7347.9497,-7337.935,-7342.6064,-7349.2964,-7341.8164,-7346.0967,-7352.5034,-7347.0156,-7349.3584,-7355.22,-7355.824,-7352.708,-7352.8906,-7357.837,-7360.081,-7356.472,-7349.13,-7353.375,-7360.956,-7358.6333,-7360.7925,-7363.168,-7358.2793,-7351.9194,-7347.084,-7351.9224,-7359.504,-7359.288,-7358.0103,-7351.454,-7349.4365,-7355.717,-7351.116,-7355.2676,-7361.0693,-7351.516,-7350.255,-7349.15,-7352.6177,-7360.715,-7361.659,-7370.275,-7367.528,-7356.8423,-7357.959,-7361.0005,-7361.4795,-7359.265,-7360.15,-7354.4688,-7349.2744,-7347.144,-7342.5425,-7351.3394,-7352.3857,-7348.7324,-7350.0396,-7351.346,-7360.121,-7352.603,-7340.9287,-7342.8887,-7347.5376,-7345.3516,-7338.913,-7349.03,-7354.2207,-7351.951,-7354.0415,-7353.346,-7358.5977,-7353.7983,-7351.653,-7358.274,-7354.4487,-7354.2754,-7352.021,-7353.2544,-7358.392,-7352.7666,-7351.318,-7352.135,-7348.8247,-7343.391,-7345.8364,-7356.6963,-7356.693,-7355.8247,-7354.7046,-7349.6523,-7354.838,-7356.851,-7350.952,-7348.0938,-7351.056,-7354.7524,-7351.473,-7349.619,-7350.502,-7349.692,-7346.2046,-7343.971,-7351.2637,-7353.017,-7349.808,-7356.8936,-7363.273,-7364.184,-7363.8257,-7368.2065,-7370.8423,-7363.242,-7365.2666,-7367.111,-7356.841,-7352.77,-7352.89,-7358.465,-7360.2134,-7351.0864,-7352.281,-7359.091,-7357.985,-7352.881,-7351.9214,-7355.1333,-7357.485,-7361.486,-7360.139,-7353.073,-7351.207,-7351.5005,-7352.8276,-7355.056,-7353.632,-7350.7656,-7350.479,-7354.9087,-7357.2686,-7354.7485,-7354.4243,-7355.6675,-7360.6567,-7367.528,-7368.3457,-7363.8022,-7355.1807,-7351.1597,-7354.5303,-7358.555,-7361.9956,-7359.6226,-7355.719,-7353.752,-7351.6543,-7356.306,-7360.6025,-7358.5015,-7355.9224,-7357.759,-7362.999,-7361.67,-7357.8867,-7355.743,-7353.805,-7353.8335,-7354.345,-7360.9536,-7360.671,-7356.3335,-7366.439,-7368.394,-7363.1587,-7359.266,-7352.102,-7357.1094,-7358.1787,-7354.2876,-7360.006,-7361.216,-7365.261,-7369.594,-7367.0864,-7362.119,-7353.1914,-7356.8228,-7359.79,-7349.1953,-7350.4575,-7353.009,-7347.2466,-7348.784,-7350.6353,-7351.5713,-7355.2236,-7352.2173,-7345.5376,-7344.723,-7347.379,-7345.165,-7339.386,-7340.7847,-7347.97,-7350.794,-7352.276,-7352.5186,-7348.2324,-7346.2354,-7345.8945,-7348.7812,-7356.3247,-7362.7544,-7360.696,-7343.7417,-7339.6343,-7351.0317,-7349.0566,-7354.0117,-7357.5215,-7344.9263,-7347.71,-7354.973,-7351.1074,-7345.202,-7341.4697,-7343.984,-7350.9727,-7355.6675,-7351.9556,-7346.6743,-7342.7935,-7344.0186,-7348.6357,-7351.024,-7356.4937,-7350.6655,-7343.283,-7345.236,-7345.163,-7353.0767,-7356.792,-7351.5884,-7347.8433,-7342.1533,-7341.6514,-7347.024,-7350.7935,-7349.41,-7350.9355,-7353.17,-7354.8037,-7362.5415,-7362.433,-7362.57,-7360.5903,-7347.4663,-7351.5796,-7360.2607,-7354.4907,-7349.485,-7344.997,-7341.0347,-7338.269,-7339.72,-7343.161,-7338.178,-7335.479,-7337.4917,-7342.5986,-7346.3794,-7341.659,-7339.235,-7335.7114,-7342.017,-7353.803,-7346.531,-7345.274,-7353.2407,-7352.793,-7347.0615,-7346.404,-7356.032,-7353.1,-7341.851,-7342.3276,-7346.1626,-7342.276,-7340.0864,-7349.3247,-7350.7983,-7345.9897,-7346.4517,-7349.5405,-7348.004,-7342.291,-7349.481,-7347.3525,-7341.766,-7349.821,-7342.64,-7341.883,-7352.8345,-7355.8257,-7352.1997,-7340.212,-7343.455,-7348.5024,-7341.2666,-7344.055,-7349.575,-7350.802,-7348.3193,-7349.7085,-7347.1216,-7336.7046,-7342.4023,-7345.0186,-7347.2817,-7360.324,-7350.732,-7343.1274,-7349.4595,-7346.043,-7346.221,-7342.6045,-7343.554,-7352.762,-7345.92,-7345.0396,-7349.107,-7348.1553,-7350.0244,-7345.385,-7352.0957,-7363.29,-7357.2095,-7347.14,-7344.107,-7346.6406,-7343.766,-7344.7314,-7344.677,-7337.75,-7343.59,-7344.993,-7345.3267,-7348.722,-7339.5415,-7339.156,-7341.358,-7337.797,-7335.818,-7334.5186,-7342.5933,-7344.5635,-7332.7554,-7325.6294,-7332.2705,-7344.899,-7348.427,-7344.14,-7340.533,-7338.795,-7337.7495,-7340.4185,-7346.1455,-7344.173,-7334.831,-7330.3545,-7336.7144,-7344.871,-7342.776,-7341.209,-7344.581,-7341.85,-7337.5195,-7332.449,-7334.4863,-7341.1304,-7338.311,-7343.4517,-7346.602,-7341.6304,-7343.6978,-7335.3335,-7331.7646,-7345.1,-7349.1196,-7338.047,-7332.4434,-7344.4116,-7345.0264,-7342.039,-7350.5244,-7343.877,-7334.7114,-7331.782,-7336.078,-7346.196,-7345.5435,-7343.134,-7338.829,-7336.9556,-7338.3867,-7339.0366,-7345.0366,-7341.694,-7337.654,-7338.257,-7335.5435,-7332.26,-7322.66,-7322.4756,-7328.2734,-7324.2227,-7322.0737,-7328.668,-7343.5347,-7352.5483,-7346.1553,-7334.682,-7337.543,-7343.7188,-7320.7773,-7306.5396,-7322.598,-7325.114,-7324.328,-7332.8584,-7334.8867,-7335.867,-7330.3516,-7327.7803,-7338.752,-7342.7954,-7334.812,-7331.6353,-7345.425,-7354.5674,-7345.669,-7340.9116,-7339.7837,-7338.7354,-7341.0605,-7342.312,-7348.829,-7350.3257,-7348.316,-7351.676,-7345.047,-7343.2983,-7345.6567,-7335.66,-7337.0005,-7346.442,-7340.7065,-7331.8306,-7338.5586,-7348.522,-7348.926,-7348.3228,-7347.037,-7345.787,-7344.156,-7339.103,-7342.6616,-7350.0527,-7346.093,-7344.13,-7349.2866,-7350.3525,-7350.5376,-7348.393,-7340.4424,-7335.5264,-7335.903,-7333.6416,-7335.7153,-7341.508,-7340.5347,-7346.261,-7347.503,-7334.5693,-7326.8765,-7329.6416,-7342.849,-7347.575,-7344.0005,-7347.561,-7346.437,-7334.6763,-7323.571,-7331.4624,-7336.6,-7332.406,-7336.3696,-7336.3765,-7343.1313,-7340.992,-7330.401,-7330.4814,-7320.908,-7324.671,-7332.46,-7330.2817,-7342.7095,-7344.2617,-7336.9023,-7343.1226,-7349.4624,-7347.1772,-7344.5845,-7343.4263,-7340.703,-7340.846,-7333.0044,-7329.4966,-7339.8887,-7339.8643,-7341.0864,-7346.024,-7341.688,-7340.3647,-7339.888,-7340.181,-7344.0913,-7341.311,-7334.797,-7337.0933,-7343.69,-7341.051,-7336.284,-7335.1533,-7333.1245,-7333.3125,-7332.43,-7332.799,-7335.9395,-7331.4224,-7325.106,-7325.247,-7334.2964,-7345.692,-7345.6626,-7345.2886,-7350.661,-7353.2085,-7349.174,-7342.994,-7348.265,-7350.5005,-7345.247,-7344.5977,-7341.527,-7346.917,-7348.7456,-7340.233,-7351.281,-7361.3804,-7348.914,-7334.184,-7334.712,-7344.6313,-7340.875,-7333.0913,-7338.0464,-7343.8193,-7343.3145,-7342.7397,-7344.9736,-7347.3184,-7350.0747,-7343.186,-7337.4263,-7343.6675,-7342.4644,-7346.644,-7350.8794,-7342.9707,-7344.7954,-7352.4795,-7358.604,-7354.716,-7346.3315,-7347.4316,-7349.565,-7349.4087,-7349.6006,-7354.6074,-7353.633,-7351.7573,-7355.6963,-7353.642,-7357.143,-7361.861,-7363.1353,-7361.8228,-7360.5444,-7365.831,-7356.9746,-7348.4727,-7358.483,-7365.219,-7362.075,-7360.0566,-7365.909,-7370.153,-7367.521,-7361.475,-7359.9233,-7363.4883,-7360.504,-7355.6743,-7352.679,-7351.044,-7349.9316,-7352.246,-7364.0474,-7372.838,-7374.883,-7372.177,-7367.5264,-7362.4214,-7355.8384,-7356.9683,-7354.533,-7352.597,-7356.757,-7352.307,-7352.9727,-7355.289,-7354.0005,-7354.119,-7354.3477,-7362.151,-7358.2676,-7355.8823,-7370.771,-7370.8706,-7364.649,-7367.762,-7369.8823,-7366.2803,-7375.7114,-7394.645,-7382.476,-7367.14,-7378.5605,-7386.355,-7383.9775,-7383.0063,-7387.7437,-7391.2886,-7391.618,-7391.258,-7386.7065,-7385.6987,-7387.485,-7387.1396,-7383.5083,-7378.987,-7378.365,-7371.97,-7365.348,-7362.4604,-7356.778,-7356.8223,-7357.174,-7351.886,-7347.327,-7350.501,-7355.232,-7352.8345,-7355.609,-7357.472,-7354.0903,-7349.9736,-7349.272,-7364.2725,-7362.2417,-7348.313,-7358.0205,-7362.2275,-7360.254,-7362.1387,-7360.094,-7358.3716,-7352.9854,-7356.418,-7362.69,-7359.878,-7358.1875,-7358.0283,-7359.6436,-7355.1987,-7346.8667,-7348.7056,-7356.065,-7358.7173,-7356.8027,-7358.6167,-7360.742,-7355.9297,-7353.0225,-7357.693,-7362.941,-7362.554,-7358.278,-7360.706,-7364.9966,-7359.59,-7356.8823,-7363.2344,-7372.09,-7376.4297,-7376.0864,-7377.303,-7372.721,-7365.4766,-7366.5747,-7366.7563,-7360.0938,-7361.8125,-7366.3096,-7358.9194,-7359.729,-7365.188,-7364.4214,-7369.277,-7371.2837,-7370.9595,-7373.963,-7374.695,-7378.033,-7382.2207,-7373.2783,-7366.2266,-7377.3896,-7379.002,-7370.7124,-7373.297,-7373.558,-7367.466,-7367.6567,-7374.4707,-7382.707,-7387.3696,-7382.014,-7379.722,-7387.001,-7385.524,-7377.544,-7375.284,-7378.8403,-7380.4336,-7375.8623,-7375.6177,-7380.7427,-7382.388,-7375.8486,-7368.1543,-7370.4727,-7372.215,-7372.622,-7379.517,-7382.3726,-7379.8457,-7373.5776,-7373.6123,-7383.551,-7383.031,-7381.098,-7386.8066,-7384.4883,-7379.2886,-7379.2266,-7380.839,-7387.238,-7395.3286,-7393.4893,-7384.072,-7370.022,-7363.1504,-7374.872,-7378.2324,-7378.094,-7384.9062,-7376.377,-7374.0073,-7377.187,-7371.4067,-7371.5015,-7368.0566,-7368.4053,-7372.925,-7368.705,-7372.16,-7381.6587,-7381.6064,-7374.3003,-7373.0386,-7376.5303,-7377.4683,-7379.018,-7378.4204,-7380.906,-7384.0547,-7377.806,-7377.3726,-7382.6235,-7377.949,-7376.9155,-7384.453,-7383.4966,-7379.984,-7381.173,-7382.016,-7385.71,-7386.825,-7386.4434,-7388.88,-7384.413,-7380.2607,-7380.7524,-7378.521,-7377.095,-7379.2383,-7380.639,-7377.315,-7379.5176,-7381.7417,-7376.9883,-7379.019,-7378.4204,-7377.4595,-7378.148,-7371.226,-7371.607,-7372.7686,-7371.9844,-7374.8228,-7373.2925,-7378.263,-7381.8135,-7376.751,-7382.8096,-7384.4204,-7377.2583,-7380.25,-7373.7065,-7368.0386,-7376.984,-7378.547,-7380.696,-7380.6284,-7376.6934,-7375.5503,-7372.535,-7379.2007,-7384.855,-7384.9097,-7386.319,-7385.6494,-7387.807,-7388.3145,-7392.3335
-7389.7656,-7378.561,-7388.6377,-7396.766,-7390.321,-7392.6646,-7389.3237,-7382.7803,-7384.492,-7382.553,-7377.5107,-7378.295,-7384.418,-7376.9385,-7370.0454,-7378.0947,-7375.36,-7374.4194,-7377.1626,-7375.671,-7379.027,-7373.2817,-7370.449,-7373.6323,-7371.0938,-7372.0576,-7375.2593,-7375.775,-7371.1147,-7368.35,-7371.6826,-7377.8965,-7385.642,-7390.7964,-7390.672,-7386.4023,-7386.462,-7383.248,-7381.303,-7389.027,-7381.486,-7369.302,-7371.7217,-7377.354,-7382.308,-7383.699,-7380.9067,-7378.995,-7380.931,-7380.7295,-7378.4155,-7379.248,-7380.645,-7380.8994,-7379.6396,-7381.5615,-7377.9087,-7368.883,-7374.8823,-7384.7515,-7382.434,-7379.3887,-7382.907,-7386.3936,-7385.759,-7382.812,-7384.5684,-7387.4766,-7383.3623,-7382.212,-7383.2812,-7384.056,-7383.962,-7378.0127,-7381.1455,-7385.8003,-7382.1343,-7381.085,-7376.8247,-7374.9053,-7380.6167,-7384.414,-7383.023,-7382.519,-7384.1533,-7380.9443,-7383.681,-7385.566,-7381.1934,-7384.349,-7385.7134,-7387.804,-7383.2095,-7374.9746,-7380.767,-7378.1807,-7381.045,-7391.9395,-7385.4966,-7388.085,-7398.268,-7395.327,-7389.7607,-7388.6196,-7387.361,-7385.033,-7389.3955,-7390.5854,-7381.273,-7373.448,-7373.1055,-7376.77,-7375.1777,-7372.978,-7376.913,-7380.76,-7382.9126,-7381.9062,-7383.5586,-7386.704,-7380.5083,-7376.909,-7379.9316,-7387.533,-7393.594,-7383.724,-7379.911,-7382.182,-7376.6797,-7376.273,-7373.494,-7376.159,-7380.2227,-7373.853,-7376.088,-7378.2217,-7381.0547,-7385.665,-7383.5747,-7387.3687,-7381.594,-7372.654,-7377.712,-7381.0527,-7381.4023,-7374.852,-7373.61,-7383.334,-7382.829,-7379.3857,-7372.9766,-7370.0405,-7378.8076,-7378.908,-7381.3325,-7387.546,-7380.9023,-7376.478,-7381.999,-7386.351,-7382.952,-7380.493,-7379.7173,-7379.04,-7381.5513,-7376.55,-7371.798,-7372.568,-7375.725,-7377.3594,-7372.2754,-7376.2935,-7374.9346,-7370.0796,-7378.1123,-7375.161,-7371.306,-7375.64,-7380.207,-7378.4023,-7369.344,-7371.8184,-7370.644,-7370.285,-7378.5156,-7375.2144,-7378.28,-7381.9517,-7376.533,-7377.822,-7378.7856,-7383.358,-7387.524,-7381.8555,-7378.5474,-7373.2295,-7367.2793,-7364.039,-7359.5234,-7364.9243,-7368.3013,-7369.481,-7379.8354,-7381.981,-7380.0293,-7378.6807,-7375.277,-7375.125,-7375.6577,-7380.1865,-7388.661,-7394.747,-7387.531,-7376.493,-7377.2817,-7377.5093,-7377.281,-7379.9585,-7379.2065,-7372.423,-7366.891,-7369.559,-7372.5005,-7377.678,-7376.849,-7367.931,-7365.5146,-7366.7925,-7369.266,-7368.605,-7372.9663,-7383.931,-7380.6904,-7371.8755,-7374.652,-7381.854,-7384.2593,-7382.0293,-7381.579,-7387.2236,-7385.4775,-7376.7,-7373.883,-7368.7524,-7366.6245,-7375.8105,-7386.972,-7387.6113,-7379.933,-7379.5576,-7380.2246,-7377.8955,-7376.59,-7374.184,-7371.7515,-7372.098,-7376.42,-7376.147,-7379.103,-7383.0747,-7377.4644,-7379.32,-7383.746,-7384.133,-7383.502,-7380.749,-7382.748,-7385.37,-7387.329,-7384.356,-7383.987,-7392.2856,-7389.7163,-7386.055,-7386.9614,-7378.5674,-7372.586,-7378.175,-7383.748,-7383.077,-7380.8516,-7378.292,-7381.115,-7383.4453,-7373.918,-7370.847,-7379.2954,-7381.8726,-7377.598,-7369.704,-7368.7915,-7376.098,-7373.026,-7371.327,-7377.0566,-7376.0073,-7374.393,-7374.4614,-7379.0723,-7383.2573,-7381.7856,-7381.6313,-7378.7524,-7380.274,-7383.0273,-7379.3267,-7379.4917,-7381.424,-7383.185,-7383.546,-7382.366,-7384.167,-7385.052,-7386.26,-7387.6816,-7384.351,-7378.6436,-7375.411,-7376.7354,-7376.1875,-7373.7725,-7373.671,-7372.228,-7373.0815,-7373.6387,-7371.5566,-7371.6816,-7372.617,-7372.095,-7368.105,-7368.5625,-7369.4404,-7367.2163,-7371.2427,-7372.3267,-7371.5635,-7370.398,-7368.905,-7375.771,-7378.5635,-7375.09,-7374.369,-7378.187,-7378.796,-7370.5625,-7372.529,-7382.692,-7385.29,-7381.3364,-7372.5474,-7371.9004,-7377.52,-7377.964,-7382.7314,-7388.2134,-7383.2817,-7378.5835,-7386.447,-7393.2188,-7385.043,-7378.2183,-7378.0864,-7373.516,-7370.2646,-7369.13,-7368.5527,-7374.589,-7377.9375,-7372.656,-7368.3413,-7369.759,-7373.6895,-7373.9795,-7367.3286,-7362.7217,-7367.7847,-7369.752,-7366.995,-7369.6904,-7371.4707,-7371.4526,-7371.4272,-7371.453,-7375.3784,-7378.592,-7381.2017,-7382.453,-7381.1587,-7382.847,-7382.863,-7384.1104,-7386.774,-7381.141,-7380.8086,-7386.2104,-7383.369,-7379.388,-7376.7417,-7378.265,-7384.974,-7386.332,-7382.4155,-7381.2197,-7381.607,-7374.301,-7371.661,-7381.6196,-7386.765,-7382.596,-7377.0674,-7383.709,-7391.5894,-7384.9854,-7381.3945,-7380.742,-7379.059,-7380.39,-7374.1855,-7369.0723,-7375.1235,-7379.967,-7377.9346,-7374.789,-7374.952,-7374.1147,-7374.3774,-7382.463,-7389.689,-7389.3545,-7382.4937,-7379.181,-7381.5225,-7379.922,-7378.737,-7377.8877,-7381.933,-7386.065,-7379.854,-7381.6187,-7388.0713,-7390.9736,-7392.643,-7386.4434,-7384.384,-7385.084,-7380.571,-7380.4385,-7383.5737,-7386.5703,-7386.0874,-7380.821,-7378.23,-7380.478,-7385.1836,-7386.8516,-7379.9404,-7376.649,-7382.4585,-7381.0815,-7381.766,-7389.2256,-7387.461,-7388.293,-7389.8877,-7386.8193,-7389.27,-7386.242,-7382.2085,-7380.6836,-7377.592,-7384.062,-7388.259,-7386.41,-7386.704,-7388.581,-7394.9395,-7391.9863,-7386.0625,-7392.806,-7397.4663,-7397.598,-7394.589,-7385.338,-7380.951,-7384.722,-7381.7607,-7373.9116,-7379.214,-7379.408,-7370.8794,-7378.694,-7385.979,-7379.0444,-7371.7427,-7372.958,-7372.4453,-7362.908,-7364.027,-7365.8423,-7357.5063,-7363.3667,-7370.7334,-7369.959,-7375.3994,-7370.9795,-7367.251,-7376.81,-7378.3843,-7376.449,-7373.858,-7374.4614,-7378.6963,-7376.601,-7379.235,-7384.883,-7388.6904,-7387.05,-7383.953,-7385.649,-7383.5513,-7384.7314,-7385.3096,-7385.99,-7384.432,-7374.5176,-7378.133,-7385.7783,-7391.023,-7389.6836,-7373.376,-7372.654,-7379.6055,-7375.8804,-7372.608,-7368.3228,-7366.3125,-7369.345,-7367.9033,-7368.2075,-7381.5957,-7389.513,-7389.7666,-7388.3535,-7379.919,-7381.091,-7381.4707,-7376.1313,-7379.8936,-7379.9146,-7377.7686,-7382.016,-7389.7085,-7391.706,-7378.096,-7370.5435,-7382.758,-7379.789,-7362.8076,-7362.42,-7366.3276,-7368.0767,-7365.519,-7363.366,-7367.9478,-7369.902,-7378.6953,-7380.809,-7375.4497,-7373.418,-7364.817,-7365.5625,-7374.542,-7381.8755,-7379.605,-7373.5366,-7384.18,-7389.716,-7386.411,-7389.091,-7389.637,-7386.5044,-7383.9155,-7383.1543,-7381.005,-7379.1523,-7373.1924,-7366.062,-7371.733,-7377.262,-7374.5376,-7374.8887,-7380.8057,-7383.86,-7380.641,-7377.1377,-7369.305,-7364.9287,-7374.4517,-7384.5747,-7388.535,-7382.8,-7375.4673,-7380.0864,-7381.8857,-7377.549,-7375.435,-7374.911,-7378.305,-7375.431,-7378.7295,-7393.7363,-7394.063,-7392.8887,-7389.2476,-7381.223,-7383.0513,-7376.4717,-7374.0513,-7372.1646,-7364.586,-7372.1846,-7375.15,-7379.8706,-7392.422,-7389.4014,-7377.8657,-7379.5596,-7392.3296,-7385.2803,-7377.6724,-7386.036,-7383.9463,-7383.4556,-7382.437,-7381.4604,-7384.7046,-7377.292,-7376.6016,-7379.551,-7383.709,-7386.0234,-7376.3213,-7379.7207,-7382.671,-7377.9824,-7381.853,-7381.8896,-7382.5117,-7380.937,-7377.95,-7376.629,-7373.514,-7380.7065,-7380.9937,-7383.1045,-7390.927,-7381.7915,-7383.848,-7392.19,-7389.878,-7380.635,-7373.333,-7382.885,-7381.381,-7378.3823,-7385.476,-7380.0737,-7379.6196,-7380.3076,-7374.1685,-7376.5337,-7379.7437,-7374.4385,-7377.1655,-7388.8594,-7381.7515,-7375.8447,-7383.217,-7381.0234,-7384.3877,-7388.5435,-7389.731,-7393.763,-7390.0054,-7392.8345,-7390.8726,-7384.5454,-7384.8706,-7376.0786,-7375.502,-7378.2783,-7375.902,-7379.9297,-7379.3984,-7381.0635,-7384.0737,-7380.3633,-7381.0327,-7384.971,-7384.8506,-7382.5854,-7382.7324,-7386.1187,-7391.2085,-7389.9746,-7384.596,-7384.3564,-7386.2393,-7385.9946,-7381.5293,-7382.4233,-7382.355,-7375.6157,-7380.3345,-7385.9766,-7389.2607,-7388.8623,-7379.391,-7382.906,-7386.723,-7383.1655,-7386.6655,-7387.7837,-7384.504,-7381.475,-7383.6064,-7388.2554,-7386.766,-7380.672,-7378.8384,-7382.673,-7386.2705,-7388.9595,-7384.5107,-7380.645,-7381.5186,-7378.9917,-7374.038,-7372.652,-7384.055,-7381.2183,-7371.654,-7380.837,-7378.8896,-7376.629,-7378.766,-7379.752,-7389.1206,-7387.471,-7387.5522,-7392.5425,-7393.061,-7390.5005,-7385.2905,-7388.643,-7385.588,-7380.7456,-7384.276,-7392.828,-7403.1567,-7402.39,-7403.2666,-7402.8047,-7402.554,-7408.8096,-7408.214,-7408.225,-7404.2954,-7396.153,-7388.6514,-7379.653,-7377.7246,-7375.0996,-7371.2954,-7372.7437,-7368.0073,-7359.968,-7358.372,-7359.6836,-7359.647,-7355.841,-7354.595,-7350.2817,-7341.0205,-7343.862,-7348.282,-7355.569,-7360.02,-7347.3335,-7352.535,-7361.713,-7358.0776,-7362.431,-7360.945,-7371.893,-7385.0444,-7373.497,-7368.566,-7366.67,-7366.6875,-7372.1553,-7367.6763,-7363.8623,-7361.04,-7364.034,-7368.1167,-7364.886,-7368.248,-7364.8374,-7357.8384,-7360.8022,-7366.5913,-7372.297,-7368.6777,-7367.595,-7370.834,-7368.54,-7371.528,-7374.991,-7376.7456,-7375.1777,-7373.8706,-7373.9546,-7363.0474,-7356.5923,-7360.27,-7365.965,-7365.202,-7355.3677,-7357.114,-7364.8594,-7367.231,-7370.7524,-7376.587,-7374.7266,-7359.9756,-7356.0483,-7362.111,-7369.6787,-7379.882,-7369.5444,-7361.361,-7370.152,-7369.5596,-7370.167,-7366.512,-7364.219,-7375.499,-7370.777,-7368.845,-7377.3047,-7373.0586,-7370.2603,-7370.3145,-7376.6484,-7382.905,-7379.677,-7382.1304,-7383.232,-7382.691,-7384.0693,-7381.3936,-7379.8677,-7378.0366,-7376.4756,-7377.132,-7375.2144,-7371.302,-7374.667,-7380.334,-7378.1714,-7381.118,-7386.262,-7382.918,-7381.0015,-7381.3022,-7378.634,-7373.674,-7374.0435,-7380.7935,-7380.2266,-7373.454,-7372.3486,-7375.649,-7378.6343,-7381.0435,-7382.7026,-7383.482,-7380.421,-7377.952,-7382.6606,-7387.091,-7385.85,-7379.96,-7376.652,-7378.226,-7374.009,-7365.422,-7362.097,-7363.2954,-7365.8887,-7372.589,-7375.1934,-7370.1143,-7368.221,-7369.728,-7376.1167,-7379.3604,-7375.4443,-7377.1035,-7379.528,-7380.1763,-7377.717,-7370.3843,-7367.992,-7370.5757,-7371.263,-7370.779,-7375.1396,-7373.8545,-7363.1587,-7360.6436,-7368.818,-7376.3594,-7373.837,-7370.292,-7374.5293,-7376.3687,-7374.6377,-7373.834,-7376.381,-7379.0537,-7373.1367,-7372.624,-7384.969,-7388.5415,-7386.207,-7385.0044,-7380.58,-7380.653,-7377.2144,-7376.5654,-7381.353,-7375.1304,-7374.3345,-7379.9663,-7381.3784,-7378.262,-7366.8823,-7366.9287,-7377.8364,-7375.236,-7366.3345,-7372.625,-7382.1353,-7376.3135,-7373.576,-7376.2573,-7378.1094,-7379.4146,-7368.097,-7364.3477,-7373.093,-7375.408,-7374.566,-7370.9263,-7370.2256,-7374.418,-7377.004,-7373.458,-7370.3247,-7375.9814,-7378.3823,-7378.6587,-7377.6694,-7374.537,-7371.819,-7367.504,-7375.4634,-7378.5576,-7370.082,-7372.9536,-7375.226,-7375.217,-7374.834,-7368.7153,-7368.1567,-7366.315,-7361.5503,-7367.2153,-7368.754,-7365.775,-7371.068,-7369.7534,-7367.0703,-7365.405,-7362.256,-7362.5054,-7357.2896,-7360.4116,-7362.1064,-7357.484,-7362.0215,-7359.127,-7359.7227,-7367.5337,-7372.2124,-7379.051,-7374.7495,-7366.6733,-7366.801,-7363.4165,-7360.2773,-7361.524,-7358.3936,-7361.162,-7374.6387,-7375.3237,-7368.3184,-7371.434,-7371.201,-7370.8247,-7369.823,-7363.2583,-7373.8237,-7375.9404,-7365.6846,-7376.2915,-7373.3955,-7362.49,-7370.7363,-7373.0063,-7368.099,-7367.1265,-7368.1104,-7366.531,-7365.8545,-7365.474,-7368.277,-7372.904,-7366.569,-7369.775,-7380.115,-7380.3657,-7375.668,-7366.795,-7367.93,-7368.7324,-7366.514,-7374.912,-7375.6865,-7375.744,-7378.6226,-7375.302,-7377.1714,-7375.9863,-7368.7397,-7360.4917,-7354.637,-7362.58,-7373.573,-7376.6562,-7370.1626,-7365.175,-7379.2993,-7387.3535,-7378.4233,-7374.944,-7375.8965,-7377.5723,-7377.1045,-7375.205,-7374.394,-7370.7617,-7372.6445,-7375.079,-7370.579,-7369.378,-7376.406,-7381.405,-7374.496,-7372.2295,-7374.253,-7368.145,-7371.151,-7377.1943,-7376.256,-7379.919,-7378.3296,-7376.435,-7383.2656,-7372.518,-7356.7793,-7371.8613,-7387.3164,-7375.8223,-7368.926,-7371.204,-7370.9785,-7380.5127,-7384.3647,-7377.881,-7382.4873,-7391.956,-7390.7603,-7382.3276,-7385.084,-7384.705,-7370.7246,-7375.73,-7383.3374,-7375.8696,-7378.6367,-7381.564,-7375.878,-7368.2896,-7362.488,-7364.905,-7370.0615,-7375.854,-7376.028,-7369.794,-7364.38,-7362.0073,-7360.935,-7356.041,-7359.314,-7363.5713,-7360.929,-7360.486,-7359.739,-7367.1074,-7366.4746,-7360.077,-7364.361,-7359.4717,-7356.618,-7354.0977,-7353.911,-7364.291,-7361.248,-7363.88,-7371.3066,-7365.695,-7359.3335,-7357.2905,-7365.1914,-7365.026,-7354.9243,-7350.735,-7352.662,-7366.7026,-7373.221,-7366.145,-7368.964,-7372.164,-7362.9604,-7358.733,-7363.019,-7362.866,-7364.391,-7367.6265,-7367.05,-7365.0957,-7361.4365,-7361.0444,-7362.987,-7365.1084,-7364.4326,-7363.5547,-7367.834,-7370.175,-7372.734,-7370.1284,-7364.649,-7362.897,-7356.163,-7356.783,-7365.3677,-7369.4,-7364.4126,-7355.1772,-7357.393,-7363.976,-7363.28,-7358.346,-7360.757,-7368.39,-7369.5493,-7368.641,-7363.6836,-7360.253,-7360.601,-7361.5767,-7370.0713,-7374.0356,-7372.847,-7370.449,-7363.819,-7361.013
-7359.5605,-7363.6064,-7369.589,-7365.461,-7363.0063,-7367.088,-7372.3506,-7372.4746,-7366.8916,-7362.4717,-7360.5137,-7365.78,-7365.6777,-7360.407,-7367.8384,-7370.7095,-7366.4775,-7369.7163,-7376.888,-7378.758,-7373.5713,-7372.7314,-7372.8647,-7367.997,-7359.6084,-7358.3564,-7371.7075,-7379.908,-7381.3486,-7376.434,-7369.305,-7377.675,-7375.0557,-7365.755,-7374.7563,-7372.927,-7363.8105,-7359.715,-7353.015,-7357.7173,-7366.0146,-7367.6265,-7363.3345,-7358.552,-7362.3013,-7362.4795,-7364.932,-7367.6924,-7357.0747,-7353.1006,-7356.667,-7358.8916,-7360.4214,-7360.4224,-7365.0923,-7365.7393,-7364.429,-7366.096,-7365.6987,-7369.8594,-7374.081,-7374.2607,-7369.8936,-7361.683,-7355.165,-7355.004,-7362.556,-7364.608,-7360.028,-7354.381,-7354.9023,-7366.1064,-7366.9434,-7357.909,-7363.1846,-7376.2417,-7372.872,-7365.9795,-7371.5723,-7372.5176,-7369.3027,-7373.1665,-7373.182,-7356.5776,-7350.2495,-7366.1025,-7367.056,-7360.0293,-7358.915,-7354.704,-7362.4263,-7372.788,-7368.9697,-7367.79,-7374.82,-7372.97,-7363.599,-7359.5674,-7360.887,-7365.37,-7364.534,-7359.418,-7357.7607,-7356.467,-7357.7183,-7356.966,-7356.9644,-7361.0635,-7361.5024,-7368.721,-7376.4126,-7374.568,-7366.104,-7354.2236,-7359.4834,-7367.2393,-7360.717,-7357.2334,-7355.297,-7357.8296,-7358.38,-7353.651,-7360.3237,-7361.2886,-7353.3853,-7352.5415,-7355.41,-7352.715,-7342.1616,-7345.7617,-7357.986,-7362.919,-7363.327,-7353.6797,-7350.537,-7350.198,-7344.154,-7345.9434,-7350.316,-7355.387,-7352.1143,-7347.326,-7352.9624,-7358.7,-7362.5054,-7355.7085,-7346.8687,-7343.9395,-7342.8906,-7347.4995,-7347.538,-7350.834,-7352.8364,-7344.3555,-7347.434,-7353.8604,-7357.003,-7366.0576,-7371.398,-7364.6914,-7355.7275,-7362.2617,-7368.126,-7367.639,-7368.322,-7354.954,-7350.838,-7358.7583,-7358.0845,-7361.678,-7363.7246,-7364.504,-7363.1694,-7360.4863,-7362.7095,-7355.167,-7353.7285,-7359.9434,-7363.3633,-7364.272,-7354.05,-7356.7905,-7366.2544,-7364.4624,-7364.33,-7361.4585,-7359.342,-7354.085,-7349.406,-7357.052,-7360.9287,-7359.0127,-7354.2915,-7357.3135,-7371.942,-7376.0166,-7371.042,-7369.2144,-7372.505,-7372.0547,-7364.4756,-7358.496,-7360.101,-7369.892,-7371.793,-7368.7065,-7373.606,-7383.2153,-7386.9355,-7375.1484,-7364.633,-7360.429,-7360.5234,-7367.4634,-7367.1953,-7362.6665,-7357.9355,-7355.2324,-7358.8096,-7360.8203,-7364.413,-7373.453,-7376.949,-7370.65,-7367.1934,-7369.1533,-7375.112,-7381.7744,-7379.4272,-7377.17,-7377.449,-7376.259,-7371.993,-7367.9224,-7371.9023,-7371.558,-7365.2236,-7362.283,-7372.408,-7383.7305,-7375.4316,-7373.738,-7382.343,-7379.4775,-7371.813,-7373.312,-7378.414,-7368.3286,-7367.5005,-7380.294,-7381.6177,-7388.937,-7392.227,-7384.9644,-7385.551,-7385.018,-7383.6997,-7382.3457,-7383.866,-7389.07,-7389.6104,-7385.8037,-7378.6333,-7378.7847,-7378.638,-7375.773,-7381.1787,-7377.919,-7369.882,-7373.722,-7380.211,-7377.781,-7370.453,-7371.6494,-7377.5083,-7371.7227,-7366.776,-7374.289,-7375.686,-7377.675,-7379.852,-7375.026,-7378.0874,-7372.9077,-7371.9204,-7384.5156,-7383.517,-7380.4165,-7373.5312,-7366.7803,-7371.9365,-7378.0464,-7380.6577,-7370.465,-7366.751,-7370.355,-7366.3843,-7368.646,-7369.512,-7371.8076,-7376.5264,-7382.3203,-7393.9233,-7399.673,-7405.134,-7405.0063,-7401.0947,-7399.669,-7394.159,-7396.3794,-7391.6646,-7380.4126,-7377.766,-7371.072,-7372.67,-7379.3086,-7379.578,-7379.2036,-7374.357,-7374.0347,-7372.5303,-7371.1147,-7375.232,-7369.4673,-7367.86,-7369.0366,-7364.8325,-7367.9214,-7369.8677,-7372.6836,-7376.194,-7374.2144,-7379.446,-7381.842,-7371.1577,-7365.3394,-7363.3003,-7360.3496,-7367.486,-7371.7246,-7370.3013,-7373.4395,-7368.1934,-7358.81,-7351.1064,-7350.662,-7366.351,-7371.021,-7363.7676,-7359.463,-7353.803,-7359.219,-7363.77,-7361.6865,-7367.528,-7369.389,-7368.211,-7366.7114,-7366.032,-7371.977,-7370.332,-7369.356,-7377.536,-7378.7134,-7374.024,-7368.6914,-7369.541,-7375.2783,-7371.89,-7369.421,-7379.8984,-7386.542,-7376.6235,-7376.1865,-7389.3545,-7387.83,-7383.534,-7380.1577,-7371.7383,-7377.522,-7380.2837,-7370.3535,-7368.7207,-7367.0195,-7365.51,-7370.664,-7375.403,-7377.25,-7372.6787,-7374.0693,-7376.6143,-7373.5654,-7372.9214,-7366.2593,-7365.066,-7365.524,-7359.9146,-7365.4355,-7374.944,-7373.6045,-7365.537,-7367.8003,-7365.757,-7354.016,-7357.6025,-7362.93,-7364.4688,-7368.743,-7365.9346,-7359.7207,-7359.3213,-7364.058,-7368.8037,-7374.4907,-7374.781,-7372.409,-7371.1143,-7363.636,-7364.031,-7372.028,-7372.5215,-7368.616,-7369.8003,-7374.1636,-7371.826,-7370.4165,-7370.481,-7366.2153,-7362.1987,-7357.774,-7358.888,-7367.66,-7374.337,-7371.0693,-7368.4106,-7374.364,-7373.3174,-7374.3013,-7380.9653,-7378.3657,-7378.9834,-7382.4688,-7375.509,-7358.363,-7353.5596,-7369.519,-7373.2476,-7368.6904,-7368.15,-7367.0234,-7374.458,-7377.608,-7380.3545,-7385.641,-7378.739,-7373.8203,-7373.3403,-7372.9897,-7374.665,-7377.4688,-7379.2603,-7377.2876,-7379.7266,-7378.011,-7373.958,-7377.5034,-7379.848,-7381.877,-7378.2817,-7376.582,-7382.5723,-7380.836,-7376.796,-7377.154,-7378.8467,-7376.775,-7373.1455,-7374.33,-7377.2,-7383.79,-7387.173,-7384.9097,-7388.179,-7385.5566,-7376.203,-7374.545,-7374.911,-7379.574,-7386.748,-7385.2266,-7376.875,-7371.267,-7379.238,-7385.5503,-7380.246,-7375.465,-7381.78,-7396.8076,-7398.336,-7393.047,-7388.3066,-7383.664,-7390.5664,-7392.162,-7390.091,-7400.6562,-7411.712,-7408.1396,-7396.8164,-7393.67,-7397.5815,-7397.1313,-7385.225,-7383.985,-7390.8726,-7380.355,-7378.8003,-7385.3022,-7378.493,-7373.6807,-7369.55,-7369.039,-7375.789,-7371.822,-7368.5034,-7377.158,-7379.5366,-7371.7036,-7363.1255,-7367.532,-7377.422,-7371.7417,-7366.7,-7368.644,-7371.2407,-7375.002,-7368.08,-7364.398,-7368.954,-7368.4985,-7369.479,-7370.8857,-7370.609,-7371.0312,-7371.2773,-7367.362,-7367.417,-7372.7935,-7362.025,-7353.568,-7358.3555,-7361.0312,-7370.0176,-7369.623,-7359.915,-7359.3613,-7357.213,-7354.9175,-7356.3047,-7362.319,-7364.9824,-7360.981,-7366.5625,-7366.6387,-7355.917,-7356.334,-7365.9917,-7369.1084,-7366.874,-7368.735,-7365.8696,-7364.9663,-7365.5083,-7360.301,-7364.7803,-7361.956,-7358.016,-7366.518,-7365.633,-7368.355,-7368.4336,-7359.2983,-7368.308,-7377.5283,-7372.787,-7370.2017,-7366.767,-7362.2617,-7362.928,-7368.0654,-7370.713,-7366.014,-7364.847,-7368.3906,-7369.4805,-7366.092,-7361.727,-7363.865,-7364.5376,-7367.6177,-7371.6675,-7367.1416,-7371.364,-7374.1216,-7375.255,-7386.089,-7378.165,-7366.9243,-7370.91,-7375.3887,-7383.568,-7380.7817,-7373.0312,-7375.906,-7371.911,-7370.4956,-7375.5723,-7379.3916,-7384.537,-7379.2437,-7370.5996,-7366.7554,-7366.2573,-7368.63,-7368.4033,-7372.994,-7377.779,-7378.2725,-7378.111,-7375.198,-7376.059,-7379.8413,-7381.6055,-7378.98,-7376.945,-7377.1924,-7373.103,-7376.868,-7383.1763,-7377.7446,-7376.8945,-7379.256,-7374.121,-7372.688,-7375.5903,-7376.4272,-7374.8477,-7371.3447,-7370.4365,-7373.8804,-7378.556,-7382.8276,-7383.0996,-7378.562,-7381.2466,-7386.177,-7386.3613,-7386.178,-7374.8647,-7372.8003,-7380.8853,-7378.7305,-7384.698,-7376.414,-7365.99,-7381.077,-7376.8965,-7367.1455,-7371.073,-7374.005,-7382.01,-7376.8433,-7371.1006,-7379.2935,-7381.2183,-7387.0054,-7385.161,-7375.4937,-7387.962,-7388.1245,-7369.3843,-7372.058,-7378.901,-7373.3076,-7369.7876,-7375.655,-7380.917,-7379.188,-7379.0376,-7374.4746,-7374.14,-7376.6543,-7369.2783,-7376.221,-7381.9995,-7368.802,-7365.1953,-7375.018,-7380.0376,-7373.4946,-7369.0605,-7368.2534,-7370.8813,-7373.9883,-7368.7515,-7372.061,-7376.1455,-7374.217,-7374.706,-7372.9478,-7369.951,-7363.645,-7368.878,-7378.2144,-7373.4575,-7368.309,-7363.4927,-7368.2803,-7377.178,-7371.686,-7370.9272,-7376.062,-7374.41,-7373.994,-7373.702,-7371.3193,-7373.587,-7374.6514,-7370.928,-7368.846,-7367.558,-7364.083,-7359.717,-7362.4473,-7364.6753,-7353.928,-7350.5312,-7360.0244,-7363.4585,-7366.893,-7373.05,-7374.1084,-7379.636,-7386.1606,-7390.4653,-7396.852,-7390.4585,-7380.464,-7379.5205,-7372.551,-7360.381,-7356.9644,-7361.2817,-7361.812,-7364.876,-7367.8716,-7362.837,-7365.577,-7362.3096,-7350.5674,-7350.941,-7350.062,-7350.9585,-7355.608,-7353.258,-7355.213,-7359.3955,-7358.138,-7355.0156,-7354.5137,-7354.6973,-7352.407,-7352.0054,-7350.6787,-7353.066,-7362.2725,-7362.7153,-7363.8423,-7371.265,-7361.327,-7352.2656,-7356.4805,-7354.029,-7354.951,-7351.2114,-7345.513,-7353.365,-7354.663,-7356.5127,-7360.5435,-7360.2876,-7361.582,-7359.8394,-7365.1104,-7372.536,-7373.568,-7366.871,-7362.436,-7373.064,-7373.745,-7365.4365,-7361.468,-7357.761,-7355.1807,-7347.5356,-7348.009,-7350.8853,-7344.5527,-7350.491,-7360.862,-7364.6763,-7367.462,-7369.266,-7373.9775,-7374.7153,-7372.539,-7372.8247,-7373.8237,-7372.863,-7363.9346,-7360.544,-7365.1953,-7366.1006,-7362.8306,-7354.4155,-7353.838,-7361.43,-7360.7476,-7362.9585,-7374.7266,-7380.156,-7378.8486,-7374.2944,-7369.4873,-7368.592,-7365.5327,-7368.942,-7374.1978,-7370.607,-7368.659,-7366.0376,-7367.5425,-7367.3154,-7352.846,-7351.553,-7365.9473,-7368.6914,-7364.5425,-7361.0693,-7360.7656,-7367.252,-7370.864,-7376.5605,-7377.714,-7370.227,-7372.928,-7372.7046,-7368.916,-7368.8105,-7363.224,-7361.8457,-7362.2183,-7361.978,-7364.791,-7366.9863,-7374.064,-7379.122,-7375.49,-7368.831,-7365.5757,-7373.362,-7374.1978,-7364.3345,-7359.236,-7351.385,-7354.592,-7367.8594,-7376.9453,-7380.7896,-7367.901,-7366.369,-7377.733,-7374.554,-7371.216,-7372.6934,-7375.7373,-7373.957,-7372.0957,-7374.5347,-7368.064,-7367.431,-7376.856,-7383.34,-7376.5195,-7360.304,-7363.4585,-7367.234,-7363.376,-7374.528,-7376.8477,-7376.821,-7381.4683,-7370.613,-7362.5845,-7362.0903,-7369.98,-7382.4214,-7374.9385,-7369.6465,-7381.2407,-7382.284,-7375.966,-7373.811,-7372.6514,-7372.4883,-7369.0356,-7368.954,-7373.509,-7375.74,-7374.772,-7370.214,-7370.963,-7370.744,-7368.6733,-7372.2344,-7371.543,-7371.6475,-7374.188,-7373.9673,-7372.0425,-7370.6396,-7370.216,-7363.1846,-7359.567,-7363.2935,-7364.0654,-7361.186,-7360.102,-7363.5356,-7359.4985,-7358.475,-7367.067,-7369.6987,-7374.2295,-7377.317,-7375.1646,-7376.383,-7375.342,-7372.0845,-7372.2866,-7378.619,-7381.078,-7371.7,-7362.3613,-7361.3906,-7360.877,-7356.4795,-7362.19,-7369.5107,-7365.097,-7362.652,-7365.075,-7369.9053,-7370.421,-7370.7866,-7376.9478,-7372.8267,-7363.638,-7358.784,-7358.584,-7361.165,-7359.2173,-7359.135,-7362.4834,-7361.343,-7360.006,-7364.105,-7367.0757,-7371.5356,-7374.3857,-7370.1113,-7366.0464,-7355.5923,-7353.365,-7360.5786,-7355.917,-7357.838,-7368.6606,-7371.202,-7366.776,-7368.481,-7369.5063,-7358.736,-7363.9116,-7374.3457,-7363.685,-7360.626,-7373.6055,-7372.1753,-7357.8047,-7356.0454,-7364.677,-7374.7563,-7377.1885,-7373.034,-7371.9204,-7365.712,-7360.5884,-7364.686,-7370.066,-7367.4043,-7360.369,-7359.803,-7367.2856,-7371.35,-7363.366,-7364.4814,-7365.258,-7359.134,-7363.387,-7361.8936,-7365.5713,-7366.0654,-7356.8716,-7362.551,-7363.068,-7359.157,-7353.146,-7350.0215,-7360.93,-7365.087,-7370.718,-7373.834,-7372.002,-7372.159,-7365.8955,-7366.209,-7367.4463,-7371.802,-7373.369,-7365.5596,-7371.6934,-7373.598,-7370.345,-7368.6875,-7365.6567,-7376.2397,-7372.1562,-7359.545,-7364.266,-7363.903,-7359.9395,-7362.7095,-7368.417,-7368.2583,-7360.0107,-7356.081,-7358.271,-7361.2705,-7359.284,-7355.8945,-7356.3643,-7356.7715,-7357.186,-7359.885,-7362.4414,-7355.1553,-7351.0005,-7360.6743,-7361.404,-7357.1987,-7357.2534,-7356.1445,-7360.594,-7360.342,-7361.1216,-7372.818,-7365.986,-7356.244,-7370.8755,-7372.002,-7366.287,-7376.1445,-7373.0728,-7368.4995,-7368.181,-7361.7637,-7361.9053,-7362.3223,-7366.0186,-7368.5127,-7361.9854,-7361.849,-7367.2266,-7370.0713,-7367.9634,-7365.2197,-7368.3667,-7374.5195,-7374.4272,-7369.3047,-7373.528,-7379.724,-7379.642,-7381.1733,-7380.7314,-7378.212,-7372.774,-7369.4243,-7374.3213,-7370.142,-7364.6396,-7366.3438,-7362.7627,-7364.238,-7367.1084,-7365.6025,-7367.2554,-7362.9653,-7357.683,-7358.745,-7360.6567,-7362.642,-7364.118,-7366.6094,-7362.1216,-7355.908,-7361.1045,-7364.133,-7362.256,-7361.182,-7366.1953,-7370.705,-7361.166,-7360.844,-7369.514,-7372.4653,-7372.3535,-7359.7534,-7354.464,-7361.8486,-7363.599,-7367.7383,-7367.1733,-7364.855,-7372.6953,-7371.9756,-7364.318,-7364.381,-7367.309,-7368.257,-7367.106,-7363.805,-7359.466,-7361.3154,-7360.691,-7353.834,-7355.3843,-7354.068,-7351.125,-7354.958,-7356.6514,-7357.7163,-7352.2104,-7350.2485,-7354.8667,-7350.675,-7349.7944,-7350.7554,-7349.4077,-7350.955,-7351.07,-7354.915,-7356.5815,-7352.212,-7347.6787,-7344.3057,-7347.1997,-7349.247,-7347.957,-7348.4424,-7348.1523,-7351.303,-7357.0503,-7359.6226,-7360.813,-7362.5527,-7361.2983,-7356.6216,-7357.934,-7361.1025,-7354.7456,-7349.315,-7352.233,-7359.5703,-7363.099,-7354.289,-7352.0127,-7357.3247,-7353.9683
-7356.6416,-7359.314,-7352.3203,-7356.6973,-7369.1963,-7371.96,-7369.0605,-7361.228,-7355.711,-7363.588,-7366.598,-7365.1284,-7366.75,-7362.228,-7358.7095,-7358.5835,-7361.752,-7365.7676,-7367.011,-7367.1147,-7362.7324,-7362.505,-7365.5244,-7366.5957,-7373.163,-7377.168,-7372.8726,-7368.649,-7370.8228,-7379.179,-7383.3076,-7377.278,-7369.363,-7368.7646,-7374.205,-7372.6025,-7369.493,-7377.8564,-7376.004,-7365.975,-7372.12,-7380.1646,-7375.816,-7367.739,-7367.1274,-7369.6567,-7370.5625,-7364.6973,-7352.15,-7360.0225,-7372.438,-7368.341,-7371.0327,-7372.1943,-7372.4243,-7375.706,-7368.083,-7371.659,-7376.486,-7370.3315,-7376.4106,-7378.5527,-7371.1636,-7367.5605,-7368.1836,-7371.939,-7369.951,-7365.131,-7368.2534,-7379.2837,-7379.731,-7371.871,-7373.3477,-7372.6665,-7373.0986,-7378.5376,-7378.145,-7375.355,-7373.4985,-7378.4023,-7381.485,-7377.1763,-7378.5957,-7375.953,-7372.111,-7376.5156,-7371.8857,-7362.5127,-7360.9907,-7368.4824,-7375.7295,-7371.0684,-7368.866,-7371.0503,-7368.637,-7364.397,-7362.625,-7370.891,-7377.474,-7374.8643,-7371.838,-7373.743,-7377.832,-7368.882,-7358.386,-7359.1855,-7359.4673,-7359.72,-7356.5024,-7359.159,-7373.5312,-7371.592,-7364.857,-7367.9077,-7365.63,-7368.755,-7374.6646,-7375.6006,-7369.2837,-7358.501,-7364.828,-7372.85,-7371.8706,-7373.0605,-7373.0415,-7375.0728,-7376.1895,-7371.7197,-7364.826,-7361.761,-7364.991,-7370.583,-7376.7915,-7380.9463,-7380.7373,-7373.8086,-7368.469,-7374.611,-7379.433,-7373.863,-7371.538,-7373.204,-7371.8374,-7372.366,-7372.409,-7373.5986,-7375.148,-7374.826,-7377.943,-7378.808,-7375.6406,-7367.587,-7367.7847,-7382.559,-7385.545,-7377.7144,-7371.784,-7371.892,-7372.9106,-7367.5386,-7370.852,-7374.2065,-7369.1636,-7366.9062,-7369.3145,-7374.7637,-7375.5693,-7374.9614,-7374.4995,-7372.3813,-7369.71,-7364.902,-7368.7524,-7376.744,-7375.574,-7370.584,-7368.787,-7370.8965,-7371.0386,-7366.9966,-7369.719,-7377.589,-7370.4927,-7359.398,-7362.7393,-7364.218,-7365.522,-7369.9507,-7368.502,-7376.68,-7382.516,-7369.2554,-7360.053,-7361.0483,-7360.4204,-7357.8955,-7363.6826,-7372.93,-7372.775,-7370.82,-7370.142,-7372.7617,-7375.687,-7373.4883,-7372.429,-7368.9062,-7368.9043,-7369.8296,-7362.19,-7363.1094,-7372.013,-7370.688,-7365.466,-7368.492,-7370.8296,-7368.0195,-7363.713,-7364.3774,-7371.2363,-7369.8022,-7367.163,-7369.647,-7370.3667,-7366.4375,-7363.457,-7372.8354,-7374.121,-7365.223,-7363.795,-7364.5376,-7363.0195,-7361.443,-7371.7417,-7377.868,-7373.181,-7374.41,-7372.047,-7373.4097,-7375.3296,-7371.651,-7374.335,-7370.6934,-7365.5713,-7368.521,-7368.241,-7368.1226,-7374.466,-7377.9175,-7373.121,-7374.726,-7384.3794,-7381.8965,-7371.1035,-7370.232,-7370.941,-7368.9927,-7371.73,-7366.761,-7357.1323,-7354.0903,-7352.4253,-7358.6177,-7368.7607,-7370.929,-7373.1753,-7382.7075,-7387.2144,-7377.5635,-7376.597,-7384.4946,-7383.92,-7386.8154,-7389.6943,-7391.195,-7392.9185,-7390.819,-7395.602,-7393.396,-7385.421,-7386.392,-7381.7153,-7377.867,-7381.6035,-7381.471,-7380.7944,-7385.6523,-7392.219,-7384.4077,-7364.319,-7356.5366,-7364.008,-7367.239,-7357.4946,-7355.7275,-7360.6475,-7355.937,-7360.137,-7368.709,-7368.5938,-7369.769,-7371.008,-7370.4487,-7367.07,-7367.867,-7374.815,-7375.9043,-7374.721,-7374.771,-7379.6675,-7385.223,-7378.0815,-7371.0005,-7369.252,-7366.562,-7366.891,-7367.368,-7367.9873,-7369.52,-7367.1465,-7361.364,-7361.637,-7366.1807,-7367.0317,-7369.11,-7367.649,-7369.5703,-7375.8047,-7364.7046,-7354.69,-7358.467,-7358.2397,-7359.2046,-7366.9478,-7368.0347,-7365.9517,-7371.6636,-7371.8003,-7374.1924,-7383.6304,-7378.841,-7371.157,-7369.887,-7368.3613,-7367.747,-7367.854,-7368.9644,-7369.804,-7369.3784,-7372.12,-7373.604,-7369.6694,-7380.1694,-7390.2407,-7376.426,-7367.861,-7372.6626,-7372.2134,-7367.205,-7371.1416,-7372.9585,-7366.9688,-7371.377,-7368.9077,-7365.2354,-7368.8145,-7355.802,-7348.654,-7353.8135,-7352.76,-7355.536,-7365.8403,-7368.2153,-7364.61,-7376.034,-7381.0195,-7374.97,-7377.5737,-7374.0205,-7375.211,-7377.2896,-7374.859,-7386.1987,-7384.9976,-7371.3843,-7369.708,-7368.4575,-7363.116,-7361.7773,-7363.4,-7368.545,-7374.236,-7370.5996,-7368.61,-7367.9897,-7361.0923,-7363.158,-7364.3438,-7362.065,-7373.342,-7378.547,-7371.599,-7370.0176,-7365.417,-7362.8086,-7369.1924,-7369.4653,-7371.2046,-7371.5103,-7360.7725,-7358.8384,-7362.5293,-7358.7007,-7365.3413,-7377.566,-7369.6626,-7364.0493,-7369.6235,-7363.4707,-7364.2983,-7372.308,-7368.724,-7369.566,-7377.7114,-7378.1772,-7365.7373,-7357.6733,-7368.5825,-7375.4277,-7370.173,-7366.5356,-7360.867,-7357.284,-7359.1953,-7361.0054,-7362.919,-7364.2773,-7367.011,-7364.391,-7357.825,-7357.958,-7360.267,-7367.0933,-7367.926,-7361.6934,-7373.789,-7384.8604,-7376.9404,-7369.0234,-7370.388,-7374.8184,-7374.661,-7379.3105,-7378.365,-7367.307,-7370.3706,-7374.649,-7372.029,-7377.811,-7383.0454,-7376.4546,-7371.83,-7377.1167,-7378.178,-7375.7847,-7374.8213,-7380.823,-7389.4253,-7379.1807,-7369.164,-7376.0176,-7384.625,-7385.3657,-7378.197,-7381.456,-7387.3467,-7381.405,-7380.7427,-7383.233,-7385.047,-7387.858,-7380.6777,-7376.5312,-7381.7925,-7375.62,-7371.5386,-7378.8945,-7380.4194,-7379.637,-7375.4126,-7378.418,-7383.7456,-7374.3433,-7373.13,-7372.267,-7371.5034,-7373.231,-7362.797,-7369.532,-7376.803,-7366.3867,-7363.8203,-7370.015,-7377.332,-7369.2993,-7362.996,-7369.2188,-7367.746,-7367.291,-7371.1265,-7379.556,-7384.2275,-7384.8027,-7388.102,-7383.1626,-7381.4326,-7379.534,-7377.3027,-7378.124,-7372.3745,-7377.705,-7381.3755,-7378.678,-7381.588,-7376.4175,-7378.0635,-7385.745,-7384.512,-7381.891,-7381.2437,-7383.676,-7383.3647,-7381.6978,-7379.6934,-7379.654,-7384.7197,-7376.895,-7365.6055,-7368.88,-7375.5464,-7379.739,-7377.8833,-7375.296,-7373.293,-7363.315,-7373.1147,-7394.3203,-7384.303,-7373.9287,-7379.1733,-7385.255,-7391.622,-7382.444,-7382.1763,-7392.939,-7389.172,-7383.8457,-7380.103,-7387.1006,-7393.1914,-7390.2627,-7392.3193,-7389.248,-7390.9204,-7390.4473,-7385.5923,-7391.0425,-7389.8804,-7385.5933,-7384.9526,-7395.5166,-7397.8276,-7369.979,-7372.4053,-7395.5303,-7386.8267,-7383.9146,-7391.337,-7395.149,-7399.7544,-7388.5645,-7383.8057,-7395.2173,-7396.2544,-7390.22,-7389.8237,-7396.0547,-7396.9185,-7393.076,-7391.8003,-7390.082,-7392.1353,-7389.6294,-7390.937,-7399.7017,-7392.88,-7384.1636,-7384.2725,-7386.635,-7387.2153,-7381.7915,-7381.5327,-7382.876,-7380.5044,-7381.141,-7385.621,-7390.2983,-7387.9736,-7383.2437,-7381.215,-7382.713,-7385.905,-7381.2617,-7378.7603,-7383.8667,-7383.649,-7384.9126,-7385.399,-7381.2266,-7384.876,-7386.089,-7388.591,-7391.1514,-7380.5786,-7378.964,-7381.351,-7382.595,-7386.401,-7378.8223,-7379.0933,-7386.419,-7388.3984,-7389.0596,-7382.997,-7377.5654,-7375.417,-7377.4224,-7382.9297,-7383.8667,-7378.2944,-7372.0957,-7372.1455,-7371.698,-7373.966,-7380.6123,-7382.322,-7380.1875,-7375.7295,-7373.0894,-7374.092,-7373.6914,-7370.1333,-7367.0537,-7370.423,-7377.8184,-7381.638,-7382.4727,-7377.465,-7371.582,-7377.2686,-7381.412,-7375.5435,-7370.163,-7369.372,-7366.3506,-7362.259,-7368.8516,-7375.791,-7371.225,-7365.984,-7369.349,-7372.0605,-7364.808,-7358.3613,-7360.399,-7362.034,-7361.972,-7363.2104,-7361.9985,-7363.722,-7362.863,-7363.529,-7373.212,-7373.0625,-7373.087,-7372.372,-7369.115,-7375.006,-7373.4043,-7377.671,-7380.9663,-7373.769,-7376.253,-7378.56,-7381.5312,-7380.353,-7377.5684,-7378.66,-7375.0244,-7374.8804,-7370.002,-7372.6577,-7379.5127,-7370.9976,-7370.3657,-7369.867,-7371.2695,-7383.2617,-7378.8867,-7372.1274,-7380.391,-7388.456,-7382.9194,-7373.1445,-7374.787,-7373.0186,-7368.281,-7369.8613,-7373.8296,-7377.4316,-7371.3,-7370.953,-7378.4004,-7376.73,-7371.584,-7366.856,-7366.7886,-7368.674,-7371.9653,-7376.2153,-7377.3184,-7383.2134,-7385.955,-7381.8145,-7375.7866,-7370.944,-7372.3228,-7370.5444,-7372.743,-7378.0107,-7373.697,-7376.196,-7381.5205,-7379.703,-7380.422,-7382.6533,-7381.443,-7376.3306,-7373.9854,-7374.68,-7372.177,-7367.841,-7371.433,-7376.077,-7367.332,-7361.462,-7366.682,-7377.9336,-7381.469,-7370.7617,-7370.291,-7377.9985,-7380.242,-7378.9087,-7378.822,-7377.09,-7373.2075,-7374.081,-7369.9824,-7375.587,-7387.708,-7382.5845,-7376.018,-7372.5723,-7374.4233,-7376.5073,-7373.1265,-7378.5767,-7384.0176,-7380.119,-7372.2114,-7373.872,-7382.733,-7384.12,-7388.0454,-7389.077,-7381.4785,-7376.784,-7372.59,-7371.8716,-7371.25,-7364.554,-7366.5913,-7379.9453,-7386.3423,-7381.9126,-7374.773,-7372.066,-7374.5903,-7370.4297,-7367.7344,-7369.417,-7367.5522,-7371.028,-7372.339,-7375.2124,-7383.7656,-7385.241,-7380.0557,-7372.5127,-7371.006,-7375.643,-7381.81,-7379.2026,-7374.5234,-7381.549,-7376.415,-7367.7007,-7374.468,-7376.837,-7374.3257,-7375.559,-7379.633,-7383.438,-7381.86,-7379.503,-7378.9746,-7379.18,-7381.706,-7380.6343,-7379.6055,-7381.234,-7376.051,-7373.4155,-7378.0376,-7379.8096,-7373.513,-7367.185,-7369.0933,-7367.459,-7369.0884,-7372.8125,-7369.8584,-7370.5137,-7362.335,-7364.7144,-7382.4795,-7378.0215,-7374.5757,-7387.0522,-7383.8784,-7364.9116,-7366.804,-7378.3364,-7365.9165,-7361.762,-7367.1963,-7364.366,-7372.146,-7374.7656,-7373.2417,-7379.9795,-7375.9897,-7372.504,-7377.899,-7384.682,-7391.609,-7383.077,-7372.6934,-7373.5312,-7376.403,-7383.4287,-7382.376,-7377.429,-7375.5503,-7373.3633,-7373.0073,-7370.493,-7378.5024,-7386.896,-7388.9707,-7392.921,-7388.9277,-7384.048,-7374.1836,-7367.313,-7370.475,-7368.7334,-7367.91,-7364.3975,-7365.4565,-7373.333,-7372.0234,-7369.0693,-7372.4087,-7380.281,-7379.119,-7375.403,-7387.5664,-7395.457,-7391.902,-7393.9404,-7394.1553,-7383.9775,-7372.8193,-7372.7646,-7379.9067,-7374.486,-7365.7295,-7367.8223,-7372.892,-7375.482,-7372.043,-7374.0737,-7376.761,-7376.02,-7380.203,-7374.4717,-7370.601,-7365.372,-7353.688,-7365.2183,-7372.887,-7360.3545,-7357.919,-7370.487,-7382.5635,-7378.5728,-7371.745,-7368.5156,-7366.8794,-7374.848,-7378.3345,-7380.3354,-7380.7036,-7375.869,-7379.541,-7379.533,-7376.759,-7375.897,-7375.0737,-7376.692,-7371.99,-7371.4473,-7371.344,-7370.026,-7372.6025,-7364.55,-7367.847,-7374.4595,-7363.5923,-7369.6064,-7379.253,-7382.2554,-7397.5913,-7391.673,-7375.6367,-7384.639,-7392.5186,-7392.544,-7392.8457,-7383.9673,-7373.742,-7378.1284,-7383.9756,-7378.745,-7378.086,-7370.457,-7360.8706,-7369.085,-7376.656,-7384.5312,-7380.353,-7362.724,-7361.9126,-7370.0737,-7375.7446,-7375.4126,-7374.435,-7370.0835,-7364.3584,-7374.3853,-7377.648,-7376.0815,-7377.0625,-7366.9966,-7369.7095,-7379.7246,-7379.431,-7382.8115,-7388.286,-7390.4185,-7387.4087,-7380.9214,-7377.799,-7372.1772,-7366.7573,-7366.3853,-7369.0396,-7373.0356,-7372.94,-7380.968,-7389.5557,-7385.432,-7383.6255,-7381.5376,-7380.5195,-7382.148,-7377.5396,-7371.843,-7367.8696,-7369.0156,-7377.988,-7388.098,-7387.316,-7369.6235,-7357.821,-7371.647,-7385.2866,-7381.375,-7378.0654,-7384.044,-7386.977,-7377.6978,-7374.232,-7382.0723,-7385.0166,-7383.153,-7380.858,-7383.1465,-7385.6016,-7384.755,-7389.256,-7389.9336,-7381.224,-7379.1255,-7384.4634,-7383.079,-7380.694,-7380.022,-7376.785,-7380.5273,-7384.757,-7387.566,-7396.021,-7398.1274,-7390.934,-7381.7954,-7375.0635,-7376.5684,-7384.5293,-7385.7036,-7380.3667,-7380.932,-7386.4136,-7387.3936,-7382.7524,-7383.8706,-7384.169,-7380.1196,-7379.91,-7376.802,-7377.565,-7376.2773,-7373.1562,-7380.1445,-7383.928,-7385.899,-7383.121,-7379.4307,-7382.5547,-7383.6274,-7390.7754,-7394.7783,-7388.5684,-7385.439,-7388.7974,-7396.5464,-7398.622,-7391.992,-7379.4893,-7372.816,-7381.041,-7389.907,-7395.3115,-7393.2744,-7389.357,-7397.7617,-7395.976,-7390.334,-7396.9077,-7391.182,-7384.4424,-7388.23,-7390.9,-7392.529,-7387.429,-7387.027,-7389.8335,-7381.063,-7378.004,-7382.444,-7384.775,-7390.5347,-7396.1523,-7396.2715,-7393.8203,-7393.678,-7391.057,-7385.833,-7389.2114,-7389.8047,-7387.592,-7393.0063,-7391.374,-7387.593,-7383.555,-7384.109,-7398.812,-7400.4985,-7398.163,-7404.839,-7399.6255,-7391.4126,-7391.3765,-7391.7295,-7383.2065,-7375.372,-7380.492,-7388.071,-7394.172,-7397.9727,-7396.9917,-7394.404,-7393.4526,-7394.769,-7390.8647,-7386.0024,-7384.2915,-7378.0737,-7374.4893,-7382.2285,-7390.5923,-7390.2593,-7387.5215,-7380.735,-7374.081,-7373.2446,-7370.104,-7374.9175,-7382.4546,-7379.537,-7379.783,-7386.5522,-7394.5303,-7396.68,-7391.683,-7389.3833,-7386.447,-7386.0405,-7395.059,-7392.235,-7380.904,-7387.249,-7395.4434,-7392.9478,-7390.77,-7385.368,-7381.2197,-7384.45,-7385.481,-7384.098,-7383.9844,-7391.759,-7397.539,-7386.065,-7383.9053,-7394.816,-7394.7227,-7387.9014,-7390.1187,-7398.2686,-7391.5205,-7382.439,-7384.1616,-7386.2495,-7387.239,-7383.527,-7382.8564,-7383.11,-7381.1167,-7384.0083,-7382.1836,-7382.112,-7382.9546,-7375.636,-7369.335,-7371.919,-7383.722,-7382.2773,-7377.406
-7385.112,-7382.7983,-7382.754,-7383.309,-7378.5728,-7382.412,-7377.2324,-7372.841,-7373.836,-7371.4487,-7379.8896,-7386.844,-7386.789,-7385.2354,-7381.739,-7381.3735,-7381.9775,-7386.3516,-7384.573,-7374.5796,-7379.167,-7387.863,-7388.467,-7390.209,-7389.3486,-7392.655,-7393.747,-7384.162,-7382.7256,-7383.0273,-7382.2656,-7381.7,-7376.0195,-7375.3745,-7368.8467,-7363.7773,-7368.8335,-7370.5864,-7381.682,-7391.269,-7385.175,-7378.1885,-7367.8037,-7361.026,-7367.5625,-7370.2466,-7370.84,-7377.5967,-7377.211,-7379.206,-7385.188,-7378.233,-7376.605,-7380.21,-7374.656,-7369.8325,-7369.2007,-7378.972,-7383.631,-7376.5405,-7378.7764,-7376.488,-7371.201,-7372.3926,-7373.5083,-7381.0894,-7380.573,-7375.4814,-7380.961,-7385.4624,-7386.957,-7385.9893,-7384.0513,-7380.8774,-7376.7334,-7376.598,-7379.332,-7382.537,-7380.7666,-7380.2324,-7383.871,-7383.14,-7380.409,-7382.1587,-7386.258,-7389.308,-7395.116,-7398.0986,-7405.807,-7412.307,-7400.235,-7399.219,-7401.9116,-7394.788,-7394.319,-7385.9136,-7383.052,-7391.1406,-7394.523,-7395.5156,-7393.8457,-7397.8193,-7393.529,-7380.2495,-7374.937,-7374.9375,-7376.5605,-7364.1255,-7356.7344,-7367.6504,-7371.037,-7371.0044,-7374.3403,-7378.8906,-7378.9316,-7377.598,-7385.2,-7385.24,-7375.811,-7372.9272,-7371.7783,-7369.3525,-7371.257,-7370.4414,-7371.2466,-7374.798,-7371.7974,-7374.6934,-7376.0103,-7375.183,-7384.045,-7382.1094,-7376.9272,-7383.8706,-7387.059,-7383.2847,-7382.8384,-7383.1514,-7378.6655,-7377.094,-7380.618,-7385.048,-7388.2095,-7388.8413,-7388.3784,-7391.571,-7394.2017,-7382.212,-7371.669,-7377.4395,-7389.1514,-7398.9863,-7391.2666,-7378.25,-7378.445,-7375.7197,-7374.374,-7380.599,-7379.2007,-7374.8403,-7377.1855,-7380.4976,-7382.08,-7380.556,-7378.1064,-7381.943,-7383.228,-7385.6206,-7398.199,-7394.122,-7381.245,-7388.513,-7388.937,-7378.7886,-7378.9834,-7377.4746,-7378.7783,-7388.0205,-7394.132,-7395.8076,-7392.651,-7395.031,-7397.766,-7396.2046,-7406.527,-7408.3433,-7400.6064,-7400.865,-7395.746,-7396.614,-7396.9365,-7390.4233,-7398.794,-7402.119,-7397.482,-7397.689,-7395.346,-7395.386,-7394.538,-7393.5845,-7397.043,-7399.394,-7399.7065,-7396.8965,-7394.7324,-7393.2466,-7386.281,-7380.6685,-7383.7017,-7390.6816,-7393.4746,-7388.189,-7386.5146,-7387.6196,-7376.422,-7372.3325,-7386.7056,-7391.331,-7383.539,-7385.4277,-7386.3057,-7381.74,-7384.0107,-7380.774,-7382.599,-7390.658,-7390.7886,-7395.8657,-7396.8354,-7397.745,-7399.4375,-7390.1895,-7390.539,-7394.717,-7395.245,-7397.1855,-7394.7407,-7392.6914,-7386.3564,-7378.017,-7379.064,-7389.121,-7400.9487,-7401.6543,-7398.3926,-7400.241,-7398.664,-7398.5493,-7399.392,-7394.1543,-7396.153,-7403.267,-7399.336,-7398.4136,-7409.5693,-7407.722,-7392.8555,-7391.12,-7396.7256,-7395.7666,-7395.6704,-7397.118,-7393.4385,-7388.4263,-7388.9688,-7390.658,-7381.5557,-7376.865,-7391.122,-7402.7104,-7406.86,-7398.642,-7382.271,-7387.3765,-7396.3623,-7394.183,-7389.688,-7384.6636,-7387.5835,-7393.706,-7397.092,-7395.2656,-7395.1772,-7395.8086,-7393.935,-7399.625,-7391.798,-7380.767,-7385.686,-7385.309,-7384.7173,-7381.13,-7380.1543,-7393.5454,-7395.918,-7391.3545,-7395.4917,-7398.311,-7394.764,-7393.231,-7396.588,-7399.0376,-7401.4697,-7400.4253,-7400.946,-7401.159,-7389.14,-7385.383,-7391.4434,-7389.779,-7392.353,-7399.267,-7397.9683,-7397.067,-7400.836,-7399.6025,-7395.5903,-7386.0273,-7382.441,-7401.992,-7411.075,-7398.202,-7392.5093,-7401.108,-7404.2075,-7394.3823,-7389.7744,-7385.195,-7389.3823,-7401.7764,-7398.61,-7397.926,-7397.3936,-7395.4854,-7401.4727,-7400.002,-7398.108,-7399.157,-7399.418,-7402.939,-7405.5513,-7401.2485,-7398.455,-7408.664,-7410.912,-7402.5576,-7402.014,-7400.3853,-7402.8345,-7415.365,-7420.4897,-7414.286,-7411.5874,-7412.64,-7410.6914,-7413.6455,-7409.361,-7402.799,-7409.277,-7407.3564,-7401.4785,-7402.125,-7407.8926,-7412.803,-7402.414,-7390.3774,-7381.652,-7381.308,-7392.8315,-7397.134,-7396.076,-7393.3657,-7393.3438,-7396.135,-7395.2544,-7398.8193,-7405.947,-7409.5703,-7402.7944,-7398.5,-7405.8945,-7404.6436,-7403.2656,-7408.275,-7405.944,-7404.672,-7403.4253,-7400.8623,-7405.4253,-7409.848,-7410.4453,-7406.1216,-7401.0513,-7405.519,-7410.717,-7408.731,-7406.4487,-7406.0815,-7406.41,-7405.926,-7404.827,-7409.03,-7410.671,-7409.516,-7414.951,-7411.729,-7402.8003,-7401.665,-7408.61,-7420.709,-7420.9663,-7418.075,-7420.119,-7416.7,-7414.251,-7406.797,-7402.82,-7408.1206,-7399.5396,-7393.9775,-7400.8716,-7402.9424,-7409.75,-7414.173,-7408.497,-7408.8145,-7412.1865,-7410.6646,-7406.107,-7403.1494,-7404.0376,-7402.6514,-7399.336,-7399.983,-7400.121,-7400.0625,-7407.638,-7408.691,-7400.2305,-7398.1313,-7400.3364,-7405.2656,-7405.178,-7402.76,-7405.12,-7403.284,-7403.2793,-7399.4526,-7393.315,-7394.431,-7395.8994,-7401.011,-7400.2314,-7392.6045,-7386.2603,-7384.7686,-7400.2754,-7409.282,-7399.029,-7393.4683,-7395.9956,-7402.516,-7408.707,-7408.518,-7403.752,-7403.109,-7406.4927,-7399.8047,-7396.1294,-7405.0234,-7404.261,-7399.9365,-7401.9893,-7398.3403,-7395.075,-7395.456,-7396.6606,-7398.7354,-7396.613,-7397.914,-7401.0913,-7401.5596,-7402.004,-7397.592,-7398.529,-7402.805,-7398.4873,-7397.298,-7402.063,-7401.943,-7397.5547,-7403.7305,-7412.362,-7405.739,-7398.5615,-7391.7275,-7389.6665,-7400.24,-7395.1895,-7386.831,-7393.5522,-7393.882,-7391.205,-7391.3345,-7392.8105,-7397.006,-7396.526,-7395.8022,-7399.8076,-7402.5117,-7404.6973,-7406.229,-7402.27,-7398.7847,-7403.18,-7410.1885,-7404.7236,-7396.256,-7402.5557,-7403.262,-7400.8887,-7407.5747,-7400.1777,-7389.6616,-7396.049,-7397.1084,-7389.432,-7394.983,-7395.3257,-7382.7964,-7387.9233,-7398.3467,-7397.5264,-7395.418,-7394.157,-7396.195,-7399.298,-7401.6475,-7398.276,-7389.64,-7390.891,-7395.9766,-7391.614,-7385.9414,-7388.088,-7395.2593,-7399.0537,-7397.33,-7395.6514,-7399.2324,-7403.8965,-7404.1665,-7406.3154,-7401.9385,-7392.895,-7399.9355,-7407.1333,-7406.5054,-7409.1416,-7407.776,-7408.3984,-7412.354,-7410.477,-7407.3315,-7401.7036,-7398.8765,-7400.225,-7397.3633,-7396.2427,-7393.059,-7391.227,-7391.894,-7389.184,-7397.1943,-7397.8853,-7387.385,-7391.904,-7395.9976,-7393.1675,-7396.1987,-7399.8984,-7395.83,-7389.6504,-7391.4756,-7393.759,-7395.1045,-7394.124,-7384.8877,-7385.639,-7394.5986,-7394.117,-7391.4956,-7391.629,-7396.011,-7403.281,-7400.9927,-7388.274,-7385.8066,-7395.1753,-7389.368,-7380.9595,-7388.017,-7389.7876,-7385.695,-7388.9414,-7392.071,-7384.891,-7378.8804,-7383.0356,-7391.842,-7394.773,-7386.7603,-7383.2554,-7382.4375,-7378.4272,-7374.197,-7375.2075,-7384.247,-7384.1143,-7383.1816,-7384.968,-7385.6606,-7388.3413,-7386.504,-7391.253,-7391.784,-7388.637,-7390.7915,-7390.8813,-7395.996,-7394.581,-7394.457,-7397.4224,-7390.042,-7390.338,-7394.366,-7394.73,-7395.263,-7392.5645,-7391.3037,-7394.8364,-7397.1733,-7397.259,-7401.629,-7402.9536,-7399.8965,-7400.0063,-7401.134,-7401.645,-7395.311,-7389.814,-7394.321,-7391.53,-7385.39,-7388.2373,-7382.6235,-7375.4634,-7379.509,-7379.62,-7384.25,-7393.5854,-7392.021,-7393.102,-7396.4336,-7395.4004,-7399.7305,-7398.8584,-7390.825,-7395.5254,-7398.0283,-7383.543,-7386.205,-7394.9116,-7381.8413,-7387.517,-7400.295,-7397.316,-7400.4937,-7390.3184,-7385.148,-7394.151,-7390.7427,-7394.8413,-7396.4316,-7393.2886,-7398.681,-7396.3643,-7394.417,-7396.8926,-7401.062,-7405.6123,-7402.74,-7401.304,-7400.9233,-7399.041,-7401.4604,-7403.559,-7405.4775,-7403.1787,-7395.247,-7393.3267,-7394.676,-7397.447,-7401.3125,-7399.2524,-7395.8975,-7390.1934,-7381.27,-7384.4697,-7398.36,-7399.8735,-7394.826,-7398.3643,-7397.2305,-7395.746,-7397.319,-7396.3853,-7401.5693,-7401.125,-7393.8657,-7394.4326,-7399.133,-7398.2085,-7394.475,-7398.9214,-7398.9097,-7391.3423,-7392.773,-7394.4404,-7392.5605,-7390.436,-7386.623,-7395.7993,-7398.771,-7379.244,-7377.3413,-7389.1655,-7389.2153,-7388.8984,-7388.5234,-7389.417,-7386.173,-7377.937,-7382.981,-7390.1895,-7389.886,-7390.149,-7393.4585,-7399.199,-7397.8247,-7393.7246,-7396.292,-7399.7373,-7398.581,-7395.3193,-7397.672,-7400.087,-7400.4087,-7405.2217,-7408.0303,-7402.7573,-7396.6562,-7396.9263,-7392.387,-7390.1045,-7399.24,-7397.149,-7391.6543,-7394.995,-7396.8647,-7398.7705,-7398.738,-7398.1353,-7395.9946,-7389.354,-7389.6587,-7397.124,-7399.816,-7402.3496,-7407.958,-7407.186,-7407.149,-7401.3003,-7386.3843,-7388.9346,-7398.9497,-7398.259,-7398.05,-7400.8813,-7400.4634,-7394.634,-7387.9077,-7387.5063,-7389.959,-7385.3154,-7385.227,-7395.8506,-7397.019,-7393.089,-7395.892,-7398.682,-7395.6416,-7389.685,-7394.3735,-7399.4883,-7395.048,-7392.2847,-7388.845,-7389.9067,-7395.517,-7395.852,-7394.06,-7395.071,-7399.723,-7396.5127,-7392.6216,-7400.273,-7402.6353,-7399.23,-7397.298,-7396.49,-7399.6187,-7398.7427,-7395.1523,-7393.5947,-7392.7495,-7390.878,-7386.9297,-7391.678,-7398.7344,-7394.81,-7389.579,-7396.0444,-7403.0205,-7394.624,-7388.901,-7390.9424,-7392.0947,-7398.2646,-7401.801,-7401.4663,-7403.155,-7403.4707,-7402.8574,-7404.429,-7403.6646,-7399.611,-7401.2593,-7404.6914,-7408.124,-7408.312,-7397.538,-7395.339,-7402.733,-7399.2153,-7394.1187,-7399.393,-7400.963,-7391.968,-7391.873,-7401.4546,-7404.4443,-7399.87,-7388.6797,-7382.535,-7390.5854,-7390.6553,-7383.052,-7387.9688,-7388.4385,-7384.47,-7389.29,-7392.422,-7395.4155,-7394.796,-7395.196,-7400.6533,-7397.3755,-7399.711,-7404.017,-7398.7705,-7398.6562,-7395.6714,-7399.3135,-7412.56,-7409.702,-7408.4927,-7411.361,-7405.3525,-7406.052,-7402.894,-7396.9814,-7400.8047,-7401.437,-7402.386,-7401.671,-7401.514,-7406.094,-7397.6865,-7397.321,-7405.9785,-7401.0176,-7405.6445,-7414.6567,-7415.7227,-7416.571,-7413.003,-7411.629,-7412.8335,-7413.233,-7405.664,-7397.3467,-7406.5444,-7411.2705,-7408.1465,-7404.605,-7392.932,-7392.896,-7394.246,-7386.983,-7394.5117,-7401.199,-7398.257,-7398.72,-7398.0396,-7397.047,-7395.6953,-7395.6855,-7398.3706,-7403.726,-7410.7275,-7410.0015,-7411.18,-7413.3193,-7408.7764,-7406.409,-7407.2886,-7411.424,-7408.9653,-7406.2007,-7412.394,-7413.396,-7408.2573,-7402.981,-7411.9146,-7422.413,-7414.5664,-7413.449,-7415.2466,-7403.45,-7393.5503,-7393.092,-7397.873,-7402.056,-7405.9067,-7405.906,-7400.7695,-7403.198,-7404.9985,-7399.5684,-7401.5366,-7401.2764,-7396.853,-7398.2695,-7396.674,-7398.6626,-7398.314,-7394.622,-7402.869,-7408.255,-7407.675,-7402.273,-7402.815,-7412.0522,-7406.0615,-7407.1187,-7414.9243,-7410.2695,-7408.4956,-7402.3223,-7398.7324,-7402.7617,-7404.0303,-7408.9688,-7408.62,-7405.698,-7403.5654,-7401.583,-7408.475,-7408.2554,-7405.936,-7407.9116,-7404.639,-7406.6357,-7404.409,-7399.873,-7407.103,-7411.6133,-7405.332,-7394.4043,-7392.9043,-7398.483,-7394.528,-7391.376,-7400.071,-7407.9893,-7403.1978,-7396.965,-7404.572,-7407.5376,-7402.189,-7407.032,-7405.0728,-7393.176,-7392.0186,-7399.5205,-7400.721,-7398.0923,-7400.1113,-7392.6265,-7389.1484,-7395.661,-7390.1914,-7387.2944,-7391.693,-7397.127,-7393.2056,-7379.8247,-7382.4775,-7387.5444,-7389.0615,-7395.4795,-7395.5137,-7394.8296,-7396.3037,-7396.754,-7397.837,-7403.511,-7409.714,-7408.8926,-7410.03,-7408.4453,-7400.4346,-7400.471,-7405.439,-7403.6426,-7397.386,-7394.822,-7397.273,-7402.7793,-7404.344,-7404.3105,-7408.6826,-7406.0947,-7402.059,-7399.1274,-7395.6553,-7400.6035,-7398.7026,-7394.645,-7398.194,-7396.6963,-7392.1094,-7388.875,-7389.978,-7391.7827,-7394.4746,-7395.3174,-7392.904,-7397.1543,-7393.1772,-7391.0366,-7398.744,-7393.2373,-7390.3325,-7390.871,-7389.413,-7395.8647,-7394.9697,-7393.6514,-7397.9404,-7396.8257,-7395.607,-7395.0806,-7400.938,-7406.497,-7398.783,-7402.7227,-7410.9697,-7404.2935,-7405.121,-7404.566,-7401.856,-7405.7173,-7403.3022,-7403.955,-7408.1533,-7412.712,-7409.951,-7399.896,-7401.6416,-7408.97,-7410.0605,-7403.5444,-7403.8916,-7404.648,-7394.437,-7395.034,-7399.7266,-7400.0684,-7394.8853,-7390.564,-7399.003,-7395.4067,-7392.172,-7400.3447,-7400.0083,-7400.8525,-7400.155,-7405.7607,-7412.656,-7402.9863,-7403.2197,-7409.365,-7411.2227,-7414.35,-7405.9995,-7399.9355,-7403.4316,-7409.755,-7416.3516,-7415.4136,-7415.031,-7408.0747,-7401.2964,-7411.729,-7414.2256,-7410.612,-7411.9385,-7408.9287,-7407.2896,-7403.837,-7401.6553,-7402.1206,-7398.1196,-7395.722,-7389.113,-7387.128,-7396.128,-7391.772,-7383.057,-7385.2163,-7386.3457,-7384.1514,-7383.6,-7387.337,-7393.691,-7399.439,-7398.1436,-7394.964,-7397.5176,-7396.477,-7397.402,-7397.1133,-7393.2573,-7398.8643,-7397.91,-7393.1177,-7396.5566,-7398.438,-7396.5977,-7388.0386,-7386.3643,-7389.605,-7387.395,-7395.719,-7399.654,-7393.5454,-7389.869,-7383.4746,-7386.561,-7391.5347,-7386.206,-7388.324,-7393.979,-7393.7427,-7393.561,-7396.294,-7403.4375,-7406.766,-7403.19,-7405.307,-7411.722,-7411.6704,-7404.7617,-7400.4917,-7405.345,-7407.755,-7404.883,-7405.04
-7403.3213,-7398.7363,-7393.7524,-7392.9204,-7396.898,-7394.8516,-7393.541,-7396.927,-7400.9204,-7407.0947,-7406.284,-7404.1685,-7400.01,-7391.9907,-7396.2065,-7401.0195,-7405.002,-7408.2964,-7404.233,-7407.2686,-7405.7285,-7400.1055,-7403.2437,-7402.1943,-7397.481,-7395.215,-7397.0776,-7405.579,-7416.2075,-7414.046,-7402.692,-7404.046,-7406.178,-7401.3926,-7401.103,-7403.85,-7406.807,-7401.723,-7402.4067,-7410.0317,-7406.47,-7404.5093,-7401.4146,-7404.4155,-7413.1826,-7407.781,-7408.922,-7410.8516,-7404.8584,-7406.412,-7405.4395,-7403.63,-7404.5576,-7400.7036,-7394.7007,-7390.625,-7394.2607,-7397.9385,-7395.3936,-7393.78,-7389.7173,-7396.221,-7409.547,-7406.8496,-7405.682,-7405.719,-7399.808,-7402.083,-7411.9917,-7419.389,-7408.0376,-7401.673,-7413.7104,-7412.5127,-7406.8223,-7407.0273,-7410.746,-7414.3735,-7407.798,-7404.5244,-7400.273,-7396.8394,-7401.4185,-7400.9805,-7403.047,-7402.7744,-7399.63,-7402.2017,-7403.9883,-7404.869,-7404.4565,-7409.4907,-7408.3735,-7404.2207,-7409.2183,-7390.928,-7379.0684,-7398.9233,-7395.8228,-7389.03,-7402.6006,-7401.674,-7400.8345,-7406.9536,-7406.0483,-7402.9863,-7399.2075,-7402.8945,-7401.3213,-7395.4604,-7396.3945,-7395.041,-7400.7095,-7397.7373,-7390.3643,-7399.757,-7404.9736,-7411.6265,-7413.9976,-7403.0557,-7403.884,-7407.9487,-7406.412,-7405.485,-7404.4727,-7408.338,-7405.0967,-7398.2734,-7400.0347,-7401.365,-7407.5396,-7404.3774,-7397.5938,-7406.013,-7399.902,-7391.89,-7393.4263,-7398.542,-7415.709,-7414.169,-7406.9517,-7411.6265,-7408.41,-7409.702,-7411.0654,-7408.1357,-7407.472,-7406.388,-7409.757,-7410.546,-7404.424,-7397.2505,-7402.1577,-7412.7095,-7405.277,-7394.1035,-7403.016,-7418.029,-7413.609,-7405.368,-7400.6,-7393.815,-7401.5894,-7404.1235,-7399.0195,-7395.353,-7388.265,-7394.545,-7399.4023,-7401.052,-7403.98,-7407.551,-7424.1895,-7425.122,-7414.414,-7415.1304,-7417.4824,-7419.0493,-7415.119,-7409.0674,-7405.477,-7403.4434,-7404.213,-7407.2217,-7410.573,-7408.2734,-7394.103,-7382.476,-7400.1655,-7422.75,-7426.379,-7418.2524,-7403.9224,-7404.2583,-7401.401,-7398.225,-7411.299,-7410.0625,-7408.1626,-7406.5557,-7406.341,-7412.9404,-7403.523,-7406.351,-7411.299,-7405.199,-7405.4355,-7400.143,-7403.3794,-7407.58,-7406.985,-7411.07,-7408.6226,-7407.0454,-7403.7095,-7397.9497,-7402.368,-7411.067,-7409.255,-7403.0566,-7409.7456,-7416.089,-7412.397,-7412.5703,-7419.022,-7422.676,-7416.944,-7408.018,-7407.178,-7410.5024,-7408.3257,-7403.0327,-7403.848,-7408.37,-7407.84,-7410.233,-7413.711,-7408.584,-7406.6597,-7409.967,-7414.1655,-7419.717,-7417.17,-7406.4204,-7398.918,-7401.665,-7416.0537,-7424.8647,-7421.7856,-7424.2754,-7418.539,-7404.8184,-7400.943,-7400.2954,-7411.154,-7425.4263,-7423.861,-7416.6743,-7416.042,-7414.4536,-7413.661,-7415.3657,-7410.162,-7420.1187,-7424.562,-7404.485,-7398.7915,-7404.2915,-7413.699,-7410.0723,-7396.2383,-7410.794,-7416.5586,-7404.005,-7409.2876,-7408.977,-7398.6323,-7393.971,-7389.597,-7394.0806,-7401.1016,-7407.7354,-7419.9277,-7412.402,-7400.7275,-7404.552,-7396.9434,-7396.326,-7414.0684,-7420.419,-7410.7266,-7402.3784,-7408.5664,-7407.7744,-7404.06,-7410.764,-7405.362,-7403.1987,-7402.206,-7396.7715,-7404.0015,-7404.7373,-7403.461,-7405.458,-7408.865,-7412.0127,-7396.3716,-7386.219,-7391.9043,-7395.909,-7401.079,-7400.251,-7391.3125,-7394.718,-7401.8223,-7391.338,-7395.998,-7409.035,-7395.9883,-7388.329,-7393.118,-7399.665,-7406.2866,-7403.451,-7401.85,-7402.0225,-7400.3438,-7398.9326,-7397.1523,-7398.934,-7401.714,-7400.471,-7399.5513,-7402.9956,-7400.831,-7397.2217,-7396.432,-7390.3584,-7390.7285,-7393.909,-7394.8213,-7403.3184,-7409.381,-7406.929,-7406.255,-7410.092,-7401.7056,-7392.854,-7402.9575,-7405.192,-7395.175,-7390.7803,-7396.8745,-7405.3687,-7396.355,-7391.9824,-7409.398,-7416.4727,-7410.24,-7407.9653,-7411.1226,-7411.9995,-7404.528,-7403.1426,-7405.5806,-7407.707,-7410.4624,-7404.883,-7408.592,-7412.4023,-7405.6494,-7405.38,-7406.358,-7411.8735,-7410.608,-7401.088,-7402.868,-7400.482,-7396.509,-7400.8135,-7401.7812,-7399.5444,-7396.321,-7396.0464,-7402.8467,-7405.136,-7401.796,-7410.408,-7419.4043,-7418.149,-7419.767,-7418.962,-7416.5884,-7412.8076,-7402.5747,-7399.6377,-7408.2627,-7411.65,-7407.0005,-7410.513,-7405.3364,-7395.1807,-7400.5527,-7401.2905,-7406.9604,-7407.437,-7394.2007,-7403.447,-7413.282,-7407.0996,-7402.6196,-7406.461,-7418.091,-7415.8936,-7401.9673,-7397.942,-7402.811,-7401.1357,-7397.9775,-7406.574,-7417.154,-7425.8296,-7420.088,-7413.5186,-7423.9927,-7420.9307,-7413.6855,-7414.3594,-7418.373,-7419.27,-7404.8774,-7406.3525,-7413.17,-7408.081,-7408.0386,-7404.663,-7404.6733,-7399.772,-7395.218,-7404.8403,-7403.862,-7399.9116,-7400.4785,-7404.314,-7410.3486,-7402.0757,-7390.915,-7389.8867,-7400.1504,-7405.832,-7398.37,-7399.6055,-7402.1953,-7398.479,-7398.336,-7401.6826,-7406.9385,-7409.7324,-7411.7783,-7408.503,-7398.7715,-7393.5605,-7391.845,-7390.018,-7394.9263,-7404.3374,-7406.108,-7407.587,-7408.2603,-7406.975,-7411.7446,-7409.7046,-7405.4136,-7404.4873,-7406.7505,-7411.4946,-7405.03,-7398.505,-7392.95,-7392.465,-7405.473,-7411.3135,-7413.3984,-7407.6924,-7397.575,-7402.724,-7400.0586,-7395.7993,-7402.1147,-7396.5757,-7391.3403,-7393.791,-7398.889,-7405.646,-7400.0244,-7401.7144,-7413.773,-7413.092,-7413.031,-7410.244,-7403.892,-7404.113,-7402.6016,-7404.043,-7406.576,-7408.3696,-7402.9194,-7395.1934,-7397.797,-7394.1704,-7396.567,-7399.6465,-7395.6685,-7406.358,-7408.7134,-7401.96,-7395.3916,-7391.487,-7395.8477,-7390.0435,-7392.919,-7396.946,-7389.1133,-7394.6333,-7401.329,-7406.9814,-7404.375,-7397.7007,-7404.9165,-7402.5117,-7397.635,-7402.312,-7407.7305,-7401.945,-7389.771,-7397.1323,-7401.7095,-7398.83,-7400.976,-7396.238,-7398.6396,-7398.4707,-7393.6304,-7398.681,-7393.875,-7393.018,-7398.206,-7391.058,-7396.178,-7401.914,-7393.772,-7392.926,-7396.242,-7399.5327,-7395.917,-7387.303,-7389.19,-7393.9097,-7396.481,-7397.9385,-7397.5747,-7396.1323,-7391.1094,-7391.8857,-7395.7134,-7392.1523,-7392.027,-7395.2188,-7398.3545,-7401.751,-7400.391,-7404.5186,-7409.484,-7405.7197,-7402.5894,-7401.6465,-7406.776,-7412.696,-7407.0576,-7396.6807,-7394.76,-7402.235,-7400.7905,-7393.6357,-7392.0034,-7388.247,-7390.2197,-7395.226,-7394.7485,-7392.2207,-7391.4604,-7400.013,-7404.492,-7396.7104,-7390.4453,-7393.2417,-7402.6143,-7406.5444,-7405.046,-7403.69,-7401.4873,-7404.258,-7406.506,-7407.4854,-7412.968,-7403.4004,-7391.189,-7399.0776,-7399.9897,-7396.79,-7402.804,-7403.664,-7406.022,-7406.1914,-7402.126,-7404.822,-7405.7583,-7401.363,-7396.1274,-7400.276,-7410.43,-7409.028,-7401.8247,-7397.806,-7403.4976,-7411.0444,-7406.923,-7402.0703,-7398.5933,-7402.3296,-7405.532,-7397.2744,-7400.268,-7404.135,-7400.965,-7398.5825,-7400.6978,-7413.38,-7413.721,-7414.6885,-7413.79,-7396.5425,-7398.224,-7402.7314,-7404.4097,-7407.91,-7395.3267,-7394.8735,-7406.1504,-7409.322,-7403.455,-7399.7505,-7408.7705,-7406.6924,-7396.7173,-7394.318,-7398.3306,-7402.953,-7400.731,-7412.1846,-7417.64,-7402.8564,-7405.714,-7412.8594,-7410.555,-7411.5103,-7407.7646,-7398.7075,-7393.5244,-7392.741,-7393.7783,-7400.6753,-7404.5337,-7402.828,-7408.8193,-7417.1772,-7417.475,-7409.723,-7403.6885,-7405.071,-7407.4756,-7406.4233,-7404.2246,-7404.919,-7410.7393,-7410.491,-7399.1846,-7403.207,-7411.221,-7405.469,-7408.9395,-7409.0938,-7403.278,-7402.0947,-7397.9497,-7400.584,-7404.842,-7406.3867,-7399.9014,-7388.907,-7396.026,-7398.103,-7393.417,-7406.407,-7419.6587,-7423.6465,-7416.597,-7403.623,-7399.405,-7403.1616,-7404.6875,-7397.183,-7399.278,-7406.436,-7401.529,-7405.617,-7410.9497,-7406.92,-7408.0425,-7409.7075,-7412.251,-7408.9355,-7399.475,-7400.4277,-7404.3613,-7407.4014,-7402.769,-7393.3325,-7404.8555,-7415.0093,-7411.1074,-7410.2188,-7402.466,-7404.5854,-7409.7705,-7392.5566,-7388.638,-7404.9116,-7412.8486,-7409.5083,-7403.774,-7401.3267,-7400.189,-7405.33,-7414.043,-7414.672,-7409.1934,-7408.3657,-7417.4736,-7419.712,-7413.099,-7409.9673,-7401.1562,-7400.888,-7409.4893,-7408.262,-7411.24,-7407.9033,-7403.1353,-7410.448,-7409.228,-7406.864,-7403.791,-7401.082,-7407.6846,-7410.8726,-7408.97,-7406.4478,-7411.4204,-7412.1084,-7405.412,-7411.1597,-7413.85,-7409.99,-7407.4966,-7408.8057,-7419.9917,-7418.5435,-7409.8364,-7412.026,-7414.221,-7412.156,-7406.794,-7407.506,-7404.723,-7396.1006,-7399.9424,-7403.6523,-7407.349,-7414.485,-7418.1055,-7421.2954,-7414.9976,-7407.1777,-7406.8843,-7410.753,-7420.566,-7424.6255,-7420.8027,-7411.2896,-7405.5537,-7414.056,-7416.1904,-7419.615,-7428.7764,-7423.4556,-7416.607,-7411.1323,-7410.5957,-7418.1895,-7421.573,-7421.3354,-7416.1484,-7419.927,-7425.1255,-7415.706,-7410.587,-7410.37,-7414.092,-7419.073,-7419.5156,-7420.785,-7418.3184,-7417.3267,-7419.6445,-7419.7827,-7416.6357,-7413.5728,-7416.8228,-7418.28,-7414.445,-7413.2583,-7416.683,-7414.4077,-7408.6816,-7410.2617,-7409.51,-7406.4985,-7408.616,-7414.7744,-7421.125,-7421.722,-7417.7676,-7414.382,-7417.0957,-7419.935,-7424.5923,-7434.928,-7431.6665,-7424.7505,-7426.487,-7421.998,-7421.6606,-7424.2183,-7422.9014,-7429.6245,-7434.1284,-7434.65,-7430.2563,-7425.7876,-7436.074,-7437.6343,-7431.6133,-7432.3867,-7434.4497,-7433.5566,-7422.571,-7422.111,-7423.717,-7417.9517,-7423.1772,-7423.9326,-7422.2617,-7417.487,-7409.3467,-7413.388,-7421.54,-7427.2734,-7418.441,-7408.2837,-7416.9077,-7421.976,-7419.7646,-7421.2715,-7418.1743,-7414.6445,-7418.8657,-7426.8174,-7433.719,-7426.1733,-7419.561,-7425.1304,-7421.2803,-7419.9814,-7422.2646,-7421.5156,-7422.659,-7421.023,-7423.1895,-7420.6646,-7417.3857,-7420.796,-7421.854,-7422.093,-7422.279,-7427.1978,-7427.829,-7424.9785,-7426.631,-7422.36,-7422.6064,-7429.177,-7432.001,-7433.442,-7427.628,-7424.728,-7431.355,-7426.1387,-7421.8423,-7429.899,-7433.261,-7434.549,-7427.8267,-7424.42,-7432.063,-7428.6772,-7422.4946,-7422.494,-7433.094,-7438.6387,-7426.5503,-7425.205,-7428.964,-7431.0405,-7436.9556,-7434.994,-7435.351,-7439.1914,-7436.8545,-7434.886,-7432.958,-7431.0024,-7429.3853,-7425.0234,-7426.698,-7427.8315,-7420.797,-7421.558,-7428.31,-7429.734,-7427.898,-7430.9624,-7438.8013,-7438.6245,-7428.866,-7424.538,-7431.971,-7430.409,-7422.566,-7423.751,-7420.7085,-7422.8267,-7431.896,-7436.4136,-7437.295,-7427.224,-7420.602,-7423.967,-7430.1694,-7435.963,-7433.9106,-7436.5083,-7439.4443,-7435.315,-7431.462,-7427.1772,-7429.1216,-7428.0137,-7431.944,-7445.076,-7441.011,-7437.437,-7437.3696,-7431.795,-7436.699,-7439.913,-7435.725,-7434.5522,-7445.6997,-7454.735,-7446.8047,-7444.7993,-7445.769,-7446.7856,-7452.0864,-7448.8413,-7446.8765,-7442.329,-7439.2363,-7445.586,-7444.6294,-7444.602,-7441.3223,-7436.8184,-7443.975,-7435.274,-7415.896,-7414.3037,-7426.1616,-7436.443,-7436.0415,-7431.3267,-7426.7007,-7427.7827,-7434.843,-7431.205,-7424.8813,-7425.7485,-7425.7603,-7428.4644,-7432.2393,-7433.2295,-7434.455,-7435.9253,-7436.908,-7433.4766,-7430.5635,-7435.7812,-7439.126,-7434.5825,-7432.352,-7430.8936,-7427.4404,-7427.8677,-7425.6685,-7425.634,-7429.4775,-7431.0747,-7433.1294,-7429.1753,-7428.2026,-7424.9097,-7416.3936,-7424.244,-7429.982,-7426.5586,-7422.9243,-7415.1616,-7417.7935,-7425.7407,-7425.8193,-7427.605,-7427.232,-7419.6396,-7421.021,-7428.477,-7429.55,-7430.421,-7427.1694,-7422.8916,-7428.4424,-7429.6025,-7427.038,-7429.5063,-7427.651,-7426.009,-7423.863,-7421.505,-7425.794,-7424.503,-7421.4785,-7421.549,-7420.8374,-7428.0137,-7434.357,-7433.2725,-7430.457,-7424.8613,-7422.5645,-7423.8784,-7424.442,-7421.8413,-7415.7217,-7418.4087,-7426.354,-7428.452,-7428.9756,-7428.8574,-7428.2524,-7427.987,-7428.0996,-7425.224,-7421.1123,-7422.183,-7417.2676,-7417.4434,-7428.06,-7424.539,-7425.609,-7433.6675,-7432.24,-7435.8286,-7435.6045,-7433.3066,-7434.667,-7427.35,-7419.5845,-7417.2046,-7418.081,-7420.2812,-7426.6465,-7429.5845,-7422.641,-7425.446,-7428.2036,-7424.967,-7431.195,-7429.955,-7426.076,-7429.634,-7425.514,-7420.193,-7418.412,-7421.7837,-7433.149,-7435.458,-7427.62,-7430.1196,-7440.678,-7435.48,-7422.626,-7427.0254,-7430.3804,-7426.0186,-7430.6655,-7431.1387,-7427.6475,-7425.8877,-7422.685,-7424.8833,-7426.85,-7428.5664,-7429.155,-7428.1313,-7431.2974,-7431.156,-7431.368,-7428.9575,-7425.644,-7434.1514,-7434.87,-7430.58,-7433.3574,-7428.174,-7427.518,-7430.9624,-7428.096,-7433.5586,-7437.506,-7436.2295,-7436.9585,-7436.4785,-7440.758,-7442.636,-7439.512,-7434.6875,-7428.244,-7429.665,-7435.9136,-7441.75,-7444.2607,-7445.6006,-7447.367,-7446.7773,-7447.0293,-7437.3003,-7430.8574,-7439.548,-7441.492,-7437.6553,-7432.572,-7434.1187,-7436.451,-7434.292,-7444.2456,-7437.3257,-7424.1133,-7432.278,-7432.3887,-7432.639,-7434.3193,-7428.116,-7427.5093,-7425.1904,-7417.928,-7415.0728,-7422.6265,-7432.0757,-7446.8887,-7451.5127
