SampleData
0.0,-1272.6577,-5066.07,-7845.171,-7912.8926,-8692.482,-8572.271,-7787.604,-8642.465,-8315.779,-8458.946,-9083.949,-8812.701,-9508.077,-9509.924,-9663.084,-9980.075,-9701.953,-9963.551,-9663.164,-9580.624,-9423.815,-9040.621,-8993.188,-8607.534,-8550.882,-8394.05,-8329.062,-8478.974,-8479.51,-8741.783,-8882.092,-9118.104,-9342.723,-9475.956,-9659.133,-9664.76,-9723.085,-9678.909,-9586.803,-9487.145,-9305.66,-9152.812,-8931.361,-8780.532,-8659.506,-8574.48,-8582.818,-8601.703,-8697.497,-8795.151,-8918.67,-9086.769,-9253.508,-9411.977,-9500.753,-9564.138,-9590.449,-9566.734,-9503.646,-9403.802,-9296.896,-9144.251,-8982.861,-8837.85,-8700.122,-8623.299,-8608.752,-8640.729,-8714.83,-8824.216,-8955.698,-9090.728,-9223.161,-9342.278,-9433.995,-9482.561,-9493.063,-9475.609,-9425.424,-9333.578,-9212.153,-9103.005,-9002.764,-8902.243,-8829.93,-8785.061,-8770.965,-8795.502,-8837.622,-8905.995,-9003.7295,-9101.447,-9198.713,-9282.849,-9340.39,-9379.581,-9392.499,-9380.079,-9338.57,-9273.237,-9191.867,-9096.695,-9011.591,-8935.954,-8878.125,-8849.358,-8838.221,-8867.039,-8937.101,-9005.893,-9072.074,-9155.276,-9223.236,-9278.051,-9334.643,-9349.235,-9347.242,-9340.611,-9295.178,-9230.355,-9153.94,-9085.455,-9027.273,-8968.708,-8927.29,-8895.912,-8885.6,-8902.3125,-8938.935,-8994.539,-9039.135,-9084.656,-9154.345,-9217.337,-9274.929,-9316.387,-9304.367,-9276.698,-9252.982,-9202.862,-9141.091,-9092.01,-9049.927,-9018.576,-9001.289,-8985.937,-8985.922,-8997.269,-9005.41,-9026.541,-9056.524,-9092.395,-9123.479,-9146.491,-9184.357,-9222.324,-9248.321,-9251.019,-9241.125,-9231.477,-9202.209,-9200.262,-9203.852,-9160.318,-9129.782,-9111.897,-9079.671,-9059.165,-9055.275,-9056.035,-9059.218,-9071.648,-9093.814,-9112.191,-9118.684,-9128.626,-9133.9,-9118.358,-9100.244,-9093.232,-9089.991,-9083.87,-9088.212,-9094.702,-9085.875,-9071.831,-9071.431,-9100.576,-9113.712,-9095.34,-9099.85,-9104.879,-9097.6455,-9103.209,-9100.983,-9095.446,-9090.221,-9080.001,-9078.399,-9075.785,-9076.972,-9083.338,-9075.741,-9073.352,-9076.58,-9070.837,-9078.748,-9076.414,-9057.255,-9071.193,-9095.469,-9106.172,-9119.052,-9123.712,-9136.487,-9166.964,-9164.598,-9139.521,-9130.896,-9098.8,-9062.771,-9049.839,-9027.5625,-9022.673,-9031.679,-9039.017,-9051.851,-9052.521,-9054.115,-9061.799,-9074.871,-9082.355,-9068.433,-9057.706,-9059.835,-9067.664,-9068.426,-9071.669,-9086.787,-9093.835,-9104.547,-9112.797,-9108.2,-9109.927,-9115.662,-9114.864,-9120.977,-9161.448,-9191.043,-9190.669,-9199.285,-9177.156,-9140.998,-9114.63,-9073.027,-9047.311,-9015.046,-8993.297,-9013.861,-9021.526,-9029.757,-9046.539,-9060.76,-9092.958,-9122.46,-9137.854,-9143.701,-9131.489,-9105.561,-9093.456,-9090.239,-9075.296,-9058.474,-9038.301,-9034.899,-9045.727,-9047.782,-9055.816,-9066.483,-9080.234,-9093.456,-9121.145,-9154.314,-9154.986,-9173.598,-9194.993,-9183.593,-9183.906,-9175.442,-9148.021,-9115.939,-9075.986,-9057.145,-9066.048,-9063.687,-9049.797,-9058.154,-9067.29,-9069.065,-9068.912,-9063.3955,-9076.558,-9097.792,-9120.855,-9133.698,-9134.292,-9140.567,-9135.977,-9134.684,-9127.067,-9110.947,-9104.441,-9087.072,-9079.879,-9081.102,-9082.398,-9094.111,-9096.058,-9101.8125,-9110.161,-9118.143,-9147.011,-9175.949,-9190.23,-9196.217,-9194.819,-9180.249,-9148.635,-9111.301,-9093.397,-9090.298,-9058.988,-9030.886,-9036.556,-9041.918,-9058.32,-9063.219,-9037.692,-9037.556,-9052.755,-9055.97,-9074.981,-9111.608,-9140.826,-9148.83,-9152.878,-9167.764,-9162.739,-9144.91,-9141.284,-9120.694,-9092.71,-9078.895,-9057.342,-9039.842,-9034.291,-9040.011,-9052.741,-9058.97,-9077.015,-9107.004,-9139.852,-9168.081,-9180.479,-9199.733,-9216.028,-9199.713,-9179.291,-9166.685,-9137.058,-9109.506,-9091.937,-9072.809,-9066.257,-9057.154,-9050.775,-9050.362,-9041.154,-9053.887,-9067.312,-9075.983,-9096.358,-9095.675,-9098.348,-9104.87,-9110.187,-9128.974,-9128.085,-9123.391,-9132.047,-9147.929,-9157.853,-9147.542,-9132.109,-9119.187,-9119.345,-9106.648,-9090.037,-9094.067,-9084.488,-9079.278,-9083.087,-9090.638,-9109.235,-9130.8955,-9152.334,-9143.845,-9134.2295,-9136.075,-9118.001,-9100.374,-9083.102,-9062.44,-9052.005,-9059.348,-9067.7705,-9056.522,-9041.306,-9045.114,-9082.194,-9125.056,-9151.0625,-9166.506,-9159.749,-9141.835,-9135.637,-9129.998,-9119.915,-9121.102,-9113.107,-9102.616,-9109.165,-9094.503,-9076.475,-9076.374,-9073.037,-9066.137,-9057.91,-9063.2295,-9073.191,-9087.88,-9112.9375,-9122.17,-9131.419,-9158.292,-9190.671,-9215.408,-9222.112,-9211.612,-9189.725,-9154.764,-9114.122,-9095.864,-9091.297,-9097.077,-9104.409,-9079.103,-9059.292,-9047.274,-9027.964,-9046.037,-9080.845,-9101.189,-9117.894,-9124.45,-9116.994,-9126.245,-9153.992,-9165.066,-9168.5625,-9168.573,-9170.614,-9169.386,-9141.62,-9123.083,-9101.305,-9071.798,-9065.091,-9059.649,-9069.874,-9084.485,-9085.013,-9092.179,-9103.661,-9108.785,-9098.0205,-9093.254,-9096.647,-9091.938,-9091.916,-9106.694,-9116.752,-9100.645,-9089.911,-9087.808,-9084.33,-9084.52,-9075.314,-9085.824,-9103.348,-9096.601,-9097.486,-9103.265,-9098.338,-9103.155,-9113.504,-9111.82,-9110.697,-9109.849,-9109.453,-9111.342,-9099.412,-9086.782,-9085.217,-9100.737,-9117.9,-9120.75,-9128.937,-9127.904,-9118.141,-9105.332,-9093.1045,-9097.928,-9093.507,-9102.246,-9141.427,-9167.637,-9173.191,-9169.792,-9161.22,-9141.137,-9112.982,-9086.956,-9076.586,-9077.712,-9065.943,-9055.818,-9051.4375,-9055.144,-9073.275,-9083.774,-9099.352,-9119.008,-9119.095,-9109.613,-9109.0,-9117.785,-9107.275,-9088.363,-9090.565,-9097.691,-9099.941,-9093.352,-9088.07,-9083.6,-9084.734,-9108.837,-9114.755,-9124.707,-9148.723,-9142.77,-9149.902,-9148.609,-9115.329,-9102.425,-9113.432,-9142.354,-9155.148,-9128.722,-9109.717,-9112.055,-9103.142,-9089.298,-9093.462,-9096.356,-9087.588,-9079.782,-9072.404,-9066.72,-9071.99,-9084.235,-9094.429,-9107.604,-9117.409,-9113.594,-9112.846,-9120.39,-9118.905,-9118.424,-9132.757,-9148.694,-9157.246,-9155.191,-9144.493,-9134.479,-9143.431,-9148.898,-9118.309,-9110.942,-9119.013,-9100.059,-9096.456,-9088.862,-9081.939,-9090.586,-9082.07,-9075.599,-9072.778,-9065.702,-9063.956,-9074.748,-9077.868,-9068.562,-9073.786,-9071.552,-9069.875,-9075.145,-9081.008,-9100.703,-9102.908,-9095.022,-9105.524,-9128.264,-9138.524,-9129.484,-9128.15,-9130.49,-9135.171,-9137.61,-9127.276,-9123.113,-9120.02,-9113.376,-9109.463,-9101.315,-9098.999,-9102.032,-9093.587,-9089.706,-9098.369,-9105.487,-9109.558,-9103.511,-9108.65,-9122.158,-9107.466,-9100.09,-9099.408,-9079.282,-9080.672,-9100.043,-9107.033,-9117.826,-9170.354,-9247.635,-9274.585,-9233.157,-9181.39,-9162.308,-9146.726,-9132.302,-9129.635,-9113.485,-9109.103,-9100.65,-9082.426,-9087.639,-9076.09,-9061.773,-9069.013,-9071.224,-9067.849,-9056.566,-9057.795,-9092.979,-9129.595,-9133.731,-9120.5625,-9106.353,-9094.263,-9102.303,-9122.964,-9140.17,-9155.013,-9171.2705,-9170.908,-9128.0625,-9093.942,-9107.282,-9117.519,-9113.705,-9110.2295,-9088.102,-9068.763,-9076.721,-9080.846,-9078.468,-9085.839,-9091.343,-9098.949,-9101.081,-9102.788,-9115.292,-9110.217,-9116.303,-9150.959,-9160.152,-9133.542,-9103.498,-9094.639,-9091.503,-9086.601,-9090.884,-9089.401,-9100.161,-9125.35,-9128.747,-9125.261,-9126.94,-9117.112,-9103.465,-9090.396,-9078.404,-9074.528,-9090.287,-9125.508,-9140.971,-9143.066,-9144.872,-9129.021,-9123.494,-9121.723,-9115.635,-9120.575,-9124.107,-9123.018,-9109.117,-9097.435,-9096.34,-9095.039,-9098.388,-9098.705,-9098.023,-9103.074,-9119.391,-9131.021,-9123.135,-9115.774,-9110.819,-9112.409,-9125.07,-9131.417,-9118.293,-9106.026,-9116.315,-9122.7705,-9121.597,-9123.311,-9121.99,-9114.836,-9095.536,-9082.093,-9081.104,-9087.271,-9096.184,-9098.636,-9104.009,-9106.315,-9100.79,-9100.426,-9107.538,-9113.115,-9117.763,-9124.405,-9124.18,-9127.644,-9139.234,-9140.837,-9127.974,-9120.74,-9119.481,-9113.494,-9126.012,-9121.383,-9093.154,-9097.332,-9097.053,-9097.372,-9102.401,-9093.438,-9124.544,-9137.756,-9120.307,-9137.663,-9138.26,-9128.117,-9137.789,-9122.654,-9097.885,-9097.906,-9086.033,-9066.637,-9067.842,-9067.777,-9073.567,-9085.953,-9095.277,-9092.492,-9091.052,-9125.293,-9145.482,-9137.522,-9135.553,-9142.51,-9162.882,-9168.767,-9150.55,-9129.636,-9122.943,-9118.296,-9107.172,-9108.634,-9106.686,-9104.8,-9103.461,-9093.1455,-9089.015,-9082.249,-9079.781,-9088.324,-9100.029,-9102.566,-9103.207,-9128.824,-9155.917,-9170.393,-9171.965,-9162.906,-9159.738,-9153.913,-9144.749,-9142.779,-9169.902,-9189.555,-9165.545,-9165.414,-9176.977,-9154.552,-9128.484,-9105.23,-9091.017,-9088.353,-9080.666,-9073.63,-9068.009,-9060.137,-9061.858,-9068.358,-9081.288,-9103.03,-9109.145,-9111.682,-9125.414,-9137.146,-9132.291,-9115.145,-9118.82,-9123.825,-9113.473,-9116.179,-9129.365,-9145.527,-9161.43,-9178.097,-9181.921,-9170.728,-9172.904,-9167.827,-9152.741,-9144.586,-9125.497,-9110.714,-9109.733,-9107.176,-9108.059,-9119.154,-9126.765,-9115.183,-9110.693,-9131.893,-9137.556,-9125.048,-9126.874,-9131.368,-9127.704,-9107.232,-9096.934,-9113.833,-9115.771,-9133.341,-9163.36,-9168.288,-9165.186,-9140.131,-9137.639,-9160.672,-9161.1045,-9166.926,-9155.644,-9143.377,-9165.589,-9177.702,-9176.896,-9153.818,-9115.867,-9128.097,-9160.848,-9148.043,-9127.954,-9122.458,-9108.735,-9110.453,-9110.821,-9093.45,-9085.226,-9076.057,-9076.323,-9084.021,-9076.87,-9074.57,-9080.349,-9090.888,-9104.448,-9108.331,-9110.755,-9121.654,-9126.915,-9116.719,-9110.733,-9112.63,-9108.452,-9111.694,-9123.201,-9116.04,-9105.99,-9113.958,-9121.842,-9128.017,-9124.962,-9125.046,-9143.065,-9142.41,-9126.708,-9114.744,-9109.878,-9108.981,-9099.531,-9090.205,-9078.592,-9090.022,-9127.835,-9151.294,-9167.003,-9174.934,-9177.256,-9169.565,-9140.732,-9120.938,-9103.434,-9082.18,-9079.865,-9083.336,-9082.62,-9083.548,-9080.045,-9070.467,-9064.419,-9065.786,-9075.779,-9090.949,-9101.103,-9109.257,-9116.85,-9120.218,-9126.958,-9129.989,-9119.395,-9111.132,-9111.458,-9114.699,-9127.671,-9147.729,-9167.265,-9191.67,-9221.732,-9233.469,-9195.639,-9144.64,-9124.569,-9100.967,-9081.444,-9084.313,-9081.962,-9083.943,-9084.237,-9080.246,-9083.813,-9087.336,-9090.122,-9080.68,-9076.808,-9080.164,-9072.423,-9068.915,-9066.004,-9071.108,-9076.913,-9084.907,-9121.354,-9143.79,-9149.485,-9167.511,-9177.055,-9178.132,-9177.336,-9188.843,-9201.884,-9189.484,-9184.605,-9198.715,-9215.239,-9217.334,-9182.518,-9147.605,-9125.999,-9080.721,-9044.834,-9044.106,-9051.509,-9065.641,-9079.028,-9086.09,-9093.506,-9096.11,-9106.252,-9132.241,-9150.492,-9148.211,-9139.933,-9131.696,-9124.858,-9113.494,-9099.044,-9098.538,-9108.88,-9128.222,-9143.551,-9166.372,-9231.005,-9285.275,-9281.561,-9254.767,-9232.194,-9215.763,-9183.5,-9130.776,-9113.097,-9107.723,-9071.626,-9049.42,-9038.084,-9042.413,-9058.328,-9056.883,-9068.334,-9078.065,-9086.523,-9096.843,-9098.915,-9112.509,-9110.823,-9115.935,-9135.777,-9137.121,-9131.252,-9116.85,-9117.92,-9135.289,-9146.104,-9152.245,-9140.907,-9132.577,-9143.25,-9153.959,-9160.415,-9161.252,-9152.848,-9140.5205,-9143.406,-9158.987,-9172.36,-9201.035,-9222.7295,-9212.685,-9199.212,-9173.126,-9148.874,-9136.461,-9107.468,-9108.49,-9129.6,-9129.651,-9147.146,-9162.906,-9150.442,-9141.6875,-9145.155,-9140.702,-9124.89,-9119.966,-9117.203,-9106.582,-9112.814,-9130.294,-9148.718,-9160.945,-9164.259,-9180.459,-9186.93,-9187.262,-9192.947,-9170.201,-9144.637,-9126.856,-9114.102,-9108.456,-9095.5625,-9110.12,-9152.751,-9200.781,-9227.761,-9212.3955,-9195.1455,-9186.248,-9169.061,-9137.381,-9108.26,-9112.386,-9123.154,-9118.896,-9116.72,-9126.258,-9139.868,-9142.952,-9140.655,-9137.14,-9134.238,-9136.775,-9137.892,-9138.572,-9133.645,-9117.26,-9110.8955,-9136.0625,-9174.202,-9195.893,-9198.105,-9182.696,-9163.17,-9141.597,-9127.034,-9138.077,-9142.861,-9143.949,-9153.026,-9151.989,-9141.001,-9114.623,-9104.8955,-9102.946,-9080.349,-9081.923,-9101.72,-9115.765,-9117.929,-9112.834,-9135.631,-9165.883,-9187.481,-9216.467,-9233.319,-9232.173,-9227.61,-9223.562,-9217.557,-9205.902,-9183.049,-9155.686,-9151.464
-9157.364,-9136.609,-9117.423,-9115.754,-9098.777,-9084.565,-9086.501,-9094.837,-9127.987,-9149.581,-9138.601,-9140.152,-9148.159,-9160.045,-9171.852,-9159.532,-9160.268,-9163.574,-9148.911,-9149.984,-9156.843,-9157.085,-9138.561,-9121.792,-9121.096,-9102.629,-9094.036,-9090.921,-9078.147,-9090.743,-9105.72,-9112.348,-9137.147,-9151.373,-9148.524,-9164.775,-9165.22,-9140.394,-9127.068,-9117.764,-9108.571,-9093.078,-9082.8955,-9083.998,-9080.037,-9084.521,-9095.923,-9104.324,-9105.101,-9103.293,-9111.725,-9123.1045,-9136.415,-9138.575,-9129.026,-9133.5205,-9138.718,-9136.547,-9142.375,-9154.182,-9149.684,-9124.99,-9122.355,-9133.736,-9131.941,-9128.162,-9110.439,-9103.041,-9111.872,-9110.538,-9126.104,-9133.217,-9114.728,-9109.748,-9117.21,-9126.935,-9119.256,-9106.049,-9107.738,-9106.005,-9104.284,-9095.714,-9091.713,-9103.766,-9102.996,-9095.537,-9091.872,-9094.448,-9104.356,-9114.416,-9132.0,-9143.388,-9149.376,-9155.306,-9134.991,-9124.716,-9136.51,-9137.044,-9147.985,-9146.566,-9138.289,-9152.279,-9154.466,-9157.591,-9148.972,-9126.759,-9126.278,-9121.653,-9115.158,-9106.055,-9092.931,-9110.63,-9133.822,-9135.073,-9139.583,-9137.367,-9123.123,-9123.058,-9109.55,-9090.848,-9097.433,-9096.691,-9088.589,-9099.116,-9121.581,-9129.773,-9127.483,-9126.007,-9124.884,-9125.799,-9119.902,-9126.53,-9138.749,-9137.357,-9146.904,-9179.393,-9203.292,-9196.435,-9201.958,-9205.193,-9180.241,-9173.899,-9183.395,-9187.354,-9177.066,-9152.798,-9117.976,-9088.807,-9091.072,-9092.633,-9086.045,-9081.647,-9085.843,-9116.223,-9143.921,-9185.566,-9266.964,-9324.332,-9296.161,-9244.965,-9230.363,-9188.159,-9143.242,-9119.063,-9086.008,-9086.382,-9088.511,-9094.326,-9100.624,-9066.036,-9064.893,-9076.269,-9064.972,-9061.351,-9057.247,-9076.667,-9070.314,-9032.984,-9028.924,-9038.209,-9066.755,-9094.479,-9126.893,-9197.294,-9250.701,-9262.859,-9231.213,-9187.904,-9160.021,-9130.526,-9126.687,-9127.096,-9124.1455,-9141.82,-9144.681,-9150.513,-9149.372,-9100.943,-9065.713,-9056.027,-9039.526,-9039.76,-9056.5625,-9069.622,-9079.731,-9095.046,-9113.601,-9134.783,-9146.411,-9130.674,-9120.096,-9116.695,-9098.871,-9092.685,-9089.892,-9079.816,-9077.894,-9086.065,-9098.59,-9100.802,-9101.791,-9113.069,-9125.411,-9131.556,-9146.716,-9170.11,-9172.428,-9170.26,-9168.831,-9158.007,-9148.286,-9131.545,-9123.967,-9135.332,-9133.523,-9124.38,-9143.544,-9144.955,-9111.66,-9116.984,-9128.515,-9107.57,-9087.356,-9069.819,-9064.511,-9062.79,-9059.4795,-9065.004,-9064.03,-9059.874,-9062.34,-9072.987,-9084.388,-9085.171,-9081.236,-9079.041,-9068.3545,-9055.101,-9056.307,-9054.527,-9052.295,-9060.354,-9073.21,-9088.962,-9090.437,-9103.338,-9126.106,-9128.094,-9145.838,-9162.689,-9158.887,-9169.285,-9164.188,-9122.454,-9088.234,-9086.732,-9092.748,-9097.392,-9110.323,-9113.937,-9121.668,-9127.292,-9114.449,-9123.423,-9123.696,-9094.782,-9094.415,-9113.663,-9120.997,-9097.604,-9069.066,-9083.764,-9083.814,-9064.865,-9066.7,-9054.151,-9052.643,-9068.968,-9085.468,-9114.391,-9123.393,-9107.389,-9086.05,-9077.274,-9077.027,-9070.203,-9076.82,-9089.139,-9099.417,-9098.595,-9084.725,-9091.123,-9106.588,-9120.259,-9136.737,-9135.864,-9107.201,-9071.607,-9052.259,-9051.72,-9069.732,-9071.318,-9061.825,-9078.012,-9094.379,-9114.057,-9130.877,-9139.592,-9151.553,-9137.882,-9135.005,-9147.636,-9130.61,-9107.264,-9080.149,-9053.4,-9046.939,-9045.349,-9052.659,-9073.201,-9086.984,-9091.823,-9090.894,-9089.137,-9097.467,-9105.9375,-9104.904,-9109.361,-9125.143,-9124.455,-9109.394,-9106.122,-9096.967,-9080.712,-9082.954,-9104.188,-9116.172,-9094.764,-9085.351,-9107.762,-9104.511,-9093.747,-9109.76,-9114.753,-9101.674,-9091.354,-9084.202,-9075.891,-9079.6455,-9083.527,-9086.938,-9112.262,-9105.938,-9077.497,-9081.683,-9079.24,-9062.807,-9060.691,-9069.805,-9078.517,-9084.924,-9088.86,-9089.148,-9092.441,-9099.36,-9103.375,-9107.346,-9124.936,-9134.206,-9129.86,-9131.493,-9119.594,-9113.131,-9110.012,-9084.857,-9073.373,-9067.12,-9055.135,-9052.7295,-9049.933,-9051.092,-9052.128,-9056.155,-9068.206,-9079.167,-9093.409,-9104.087,-9099.705,-9084.475,-9077.111,-9077.451,-9077.448,-9086.108,-9090.459,-9084.881,-9087.746,-9087.642,-9068.85,-9063.795,-9077.135,-9082.969,-9090.334,-9085.728,-9073.25,-9072.05,-9063.26,-9058.304,-9060.318,-9057.033,-9056.91,-9058.839,-9068.653,-9081.054,-9084.203,-9085.398,-9084.656,-9096.756,-9123.171,-9134.526,-9147.676,-9161.857,-9146.007,-9127.192,-9113.515,-9085.877,-9059.727,-9054.628,-9072.44,-9095.54,-9110.088,-9112.471,-9102.762,-9082.939,-9050.8,-9028.428,-9033.221,-9042.699,-9045.172,-9044.441,-9051.264,-9069.0625,-9069.058,-9064.513,-9085.87,-9100.222,-9093.092,-9088.6455,-9088.028,-9087.625,-9090.482,-9087.891,-9082.797,-9090.695,-9097.8,-9095.785,-9092.146,-9078.981,-9069.844,-9067.777,-9061.512,-9061.135,-9057.935,-9054.552,-9059.645,-9065.75,-9077.221,-9082.862,-9084.5,-9088.433,-9075.264,-9060.683,-9059.486,-9059.402,-9063.783,-9072.471,-9083.406,-9087.495,-9080.5205,-9082.753,-9089.043,-9078.733,-9055.038,-9047.301,-9061.493,-9060.233,-9050.81,-9058.291,-9058.403,-9036.652,-9010.87,-8998.555,-9000.115,-9004.625,-9007.35,-9012.72,-9021.804,-9020.056,-9017.135,-9039.993,-9061.394,-9060.177,-9045.818,-9023.158,-9029.741,-9048.073,-9034.088,-9022.974,-9013.237,-8989.622,-8971.579,-8953.476,-8934.246,-8920.419,-8926.071,-8933.183,-8917.774,-8895.128,-8878.49,-8900.928,-8914.11,-8877.085,-8868.397,-8867.502,-8855.214,-8868.466,-8868.232,-8862.014,-8861.6875,-8847.849,-8837.72,-8835.314,-8849.702,-8879.898,-8893.731,-8882.528,-8871.521,-8869.103,-8867.304,-8878.499,-8889.192,-8891.004,-8891.311,-8882.172,-8880.203,-8879.435,-8875.069,-8867.666,-8854.691,-8871.813,-8890.27,-8890.647,-8883.427,-8843.011,-8810.627,-8804.048,-8800.226,-8782.77,-8757.165,-8761.539,-8749.255,-8724.803,-8726.883,-8719.933,-8725.285,-8726.868,-8703.533,-8702.95,-8732.308,-8761.5625,-8760.735,-8759.261,-8763.58,-8750.447,-8756.946,-8765.821,-8763.536,-8775.943,-8765.9,-8747.911,-8766.0625,-8762.539,-8726.589,-8719.932,-8716.384,-8705.264,-8709.7,-8704.252,-8702.809,-8721.187,-8758.737,-8796.859,-8800.953,-8797.979,-8789.723,-8780.777,-8788.463,-8775.679,-8764.905,-8763.989,-8754.279,-8760.694,-8766.338,-8766.882,-8762.611,-8749.017,-8734.739,-8712.661,-8710.744,-8714.786,-8698.076,-8699.056,-8716.581,-8723.086,-8734.687,-8757.914,-8768.678,-8785.046,-8800.367,-8790.371,-8794.455,-8804.585,-8800.961,-8797.961,-8793.702,-8790.713,-8783.18,-8778.601,-8780.796,-8777.788,-8769.98,-8772.467,-8796.878,-8807.185,-8808.574,-8832.429,-8852.149,-8872.0,-8903.917,-8925.221,-8927.911,-8923.094,-8904.184,-8871.051,-8858.202,-8853.187,-8848.908,-8865.967,-8871.412,-8848.465,-8828.764,-8840.701,-8859.75,-8860.393,-8854.195,-8837.504,-8839.861,-8874.436,-8892.258,-8901.673,-8915.659,-8905.054,-8907.09,-8923.2705,-8907.193,-8889.247,-8876.287,-8861.248,-8860.871,-8868.393,-8871.439,-8875.284,-8896.611,-8910.14,-8908.737,-8903.352,-8898.443,-8908.724,-8913.562,-8917.868,-8937.073,-8958.6045,-8971.0,-8977.911,-8973.124,-8954.086,-8957.914,-8950.5,-8925.809,-8925.8,-8922.46,-8923.692,-8923.363,-8918.17,-8919.98,-8917.827,-8934.197,-8943.19,-8941.547,-8945.469,-8948.997,-8975.197,-8993.35,-8995.63,-8996.387,-8981.223,-8968.456,-8963.643,-8961.537,-8955.783,-8945.492,-8950.072,-8962.972,-8972.8,-8977.861,-8955.543,-8937.798,-8958.973,-8956.49,-8943.593,-8963.555,-8976.506,-8982.22,-8981.263,-8970.197,-8958.686,-8945.441,-8945.974,-8953.649,-8953.869,-8947.979,-8952.549,-8959.111,-8954.933,-8955.334,-8952.65,-8982.981,-9043.716,-9056.784,-9045.755,-9054.485,-9048.528,-9027.618,-9041.636,-9073.278,-9091.077,-9097.023,-9065.44,-9028.095,-8999.894,-8963.247,-8960.966,-8966.8545,-8967.482,-8974.7,-8956.104,-8945.122,-8938.67,-8915.647,-8909.6455,-8917.37,-8924.854,-8936.493,-8957.062,-8969.058,-8973.911,-8987.796,-9001.463,-9016.628,-9028.561,-9045.362,-9074.143,-9088.6875,-9087.967,-9083.743,-9069.064,-9045.819,-9021.304,-8993.257,-8975.199,-8968.379,-8964.906,-8973.289,-8972.505,-8968.857,-8986.591,-8996.638,-9004.748,-9045.162,-9085.146,-9092.133,-9104.374,-9124.612,-9115.174,-9084.99,-9060.012,-9055.965,-9040.988,-9016.301,-9022.396,-9030.9795,-9046.38,-9070.567,-9074.832,-9074.429,-9077.016,-9081.994,-9076.174,-9070.731,-9064.037,-9031.741,-9019.703,-9041.313,-9060.189,-9066.997,-9084.467,-9100.874,-9079.11,-9061.671,-9046.197,-9021.8545,-9027.325,-9032.457,-9043.3125,-9061.787,-9063.917,-9069.794,-9061.35,-9050.583,-9054.01,-9040.013,-9035.562,-9058.285,-9068.6875,-9069.395,-9075.013,-9077.983,-9075.283,-9062.2705,-9067.111,-9092.457,-9105.992,-9111.175,-9121.709,-9145.475,-9147.552,-9124.585,-9097.681,-9060.025,-9050.797,-9046.011,-9034.521,-9050.478,-9055.324,-9056.422,-9060.019,-9057.304,-9054.924,-9047.739,-9049.218,-9043.592,-9039.171,-9046.492,-9051.093,-9057.696,-9058.1,-9059.787,-9071.308,-9086.792,-9096.126,-9095.845,-9099.013,-9104.518,-9106.456,-9108.792,-9118.368,-9132.206,-9137.088,-9119.495,-9105.813,-9110.946,-9093.725,-9078.325,-9101.428,-9135.301,-9146.646,-9126.011,-9108.499,-9114.935,-9129.63,-9126.926,-9114.969,-9114.863,-9115.314,-9107.671,-9082.91,-9081.395,-9093.747,-9085.224,-9094.901,-9090.636,-9086.03,-9099.163,-9093.597,-9099.788,-9096.825,-9084.936,-9091.135,-9091.055,-9091.044,-9101.911,-9112.038,-9114.2705,-9118.012,-9110.183,-9096.857,-9102.442,-9100.971,-9085.049,-9075.665,-9089.26,-9102.082,-9083.947,-9071.281,-9074.159,-9071.923,-9067.047,-9062.397,-9065.925,-9075.656,-9085.081,-9096.635,-9114.8955,-9124.14,-9114.926,-9121.247,-9126.066,-9096.114,-9073.035,-9073.898,-9074.178,-9071.233,-9079.578,-9099.416,-9122.654,-9154.098,-9165.717,-9155.841,-9161.669,-9146.732,-9126.372,-9147.6,-9136.895,-9103.852,-9102.152,-9084.274,-9075.078,-9091.204,-9092.295,-9088.342,-9080.434,-9079.296,-9075.209,-9062.838,-9074.378,-9070.516,-9045.508,-9045.367,-9066.323,-9089.699,-9091.382,-9086.658,-9103.11,-9122.887,-9129.412,-9123.687,-9122.529,-9123.693,-9112.527,-9098.595,-9082.79,-9080.461,-9105.604,-9129.663,-9153.492,-9167.397,-9149.952,-9151.684,-9163.386,-9153.327,-9146.881,-9130.074,-9117.053,-9115.004,-9105.785,-9095.003,-9084.265,-9089.629,-9084.69,-9070.93,-9067.486,-9059.298,-9069.495,-9077.298,-9075.123,-9079.377,-9070.324,-9065.737,-9071.54,-9075.231,-9081.048,-9089.526,-9099.593,-9119.424,-9135.761,-9129.134,-9126.258,-9118.683,-9104.382,-9119.829,-9131.5205,-9116.585,-9097.699,-9085.94,-9088.974,-9099.142,-9105.404,-9104.381,-9102.677,-9113.889,-9125.058,-9118.918,-9109.062,-9098.143,-9089.472,-9101.941,-9114.53,-9104.547,-9095.43,-9112.805,-9131.944,-9143.87,-9173.914,-9170.848,-9137.666,-9135.978,-9136.986,-9132.619,-9124.877,-9116.322,-9108.349,-9090.004,-9088.604,-9082.654,-9087.482,-9114.582,-9133.442,-9152.625,-9139.656,-9125.884,-9113.473,-9082.109,-9086.602,-9074.42,-9045.583,-9039.6045,-9034.981,-9059.692,-9079.679,-9080.521,-9103.61,-9123.02,-9126.572,-9121.832,-9113.595,-9116.548,-9125.521,-9121.833,-9109.456,-9105.345,-9103.696,-9105.943,-9101.403,-9087.582,-9085.203,-9077.94,-9075.336,-9090.712,-9107.318,-9117.117,-9107.832,-9102.354,-9114.08,-9120.265,-9114.034,-9107.283,-9121.969,-9141.09,-9148.961,-9157.872,-9164.725,-9171.495,-9168.209,-9153.381,-9142.034,-9125.923,-9104.849,-9095.068,-9093.195,-9087.267,-9093.224,-9095.979,-9086.474,-9100.1875,-9108.031,-9107.633,-9116.158,-9105.586,-9095.968,-9088.25,-9088.157,-9098.965,-9094.58,-9099.473,-9102.655,-9105.26,-9128.083,-9146.353,-9157.874,-9147.635,-9128.75,-9130.543,-9137.445,-9149.927,-9150.051,-9134.086,-9131.442,-9133.115,-9125.54,-9109.864,-9104.745,-9114.016,-9111.075,-9103.038,-9098.713,-9090.764,-9091.711,-9101.719,-9106.328,-9105.964,-9100.877,-9100.28,-9120.776,-9130.357,-9122.404,-9144.892,-9167.447,-9164.43,-9160.015,-9142.309,-9136.249,-9131.503,-9111.896,-9130.027,-9164.379,-9189.069,-9191.922,-9174.515,-9167.696,-9146.161,-9123.175,-9105.46,-9090.259,-9112.538,-9139.521,-9156.889,-9173.849,-9169.81,-9158.331,-9154.573,-9158.464
-9163.616,-9152.196,-9140.678,-9141.387,-9124.079,-9101.11,-9096.038,-9100.466,-9116.174,-9130.567,-9134.781,-9125.85,-9121.179,-9129.871,-9113.537,-9098.706,-9104.76,-9115.566,-9131.871,-9137.51,-9146.779,-9134.951,-9116.084,-9133.833,-9140.417,-9139.096,-9139.865,-9150.407,-9169.863,-9170.938,-9195.665,-9213.097,-9202.041,-9193.67,-9164.832,-9158.535,-9170.002,-9155.235,-9150.038,-9154.173,-9145.97,-9124.653,-9111.257,-9110.815,-9104.073,-9103.933,-9106.201,-9104.989,-9106.617,-9103.968,-9109.053,-9121.852,-9129.233,-9129.923,-9127.569,-9127.784,-9128.015,-9129.352,-9129.792,-9126.24,-9129.994,-9145.044,-9158.485,-9164.693,-9177.255,-9186.498,-9179.6455,-9178.526,-9174.572,-9152.706,-9133.263,-9122.206,-9113.032,-9110.551,-9122.028,-9128.439,-9123.31,-9126.427,-9129.359,-9128.041,-9128.073,-9133.636,-9140.319,-9138.276,-9141.214,-9138.384,-9131.111,-9142.856,-9152.136,-9134.259,-9111.965,-9115.939,-9114.91,-9109.945,-9134.526,-9150.143,-9151.348,-9164.355,-9188.322,-9217.188,-9225.459,-9221.652,-9233.341,-9218.115,-9165.561,-9140.323,-9120.222,-9098.699,-9113.478,-9122.51,-9139.4795,-9153.524,-9135.989,-9129.046,-9121.292,-9123.109,-9122.766,-9107.141,-9106.892,-9103.236,-9112.139,-9125.991,-9127.788,-9134.47,-9139.03,-9149.066,-9154.267,-9152.936,-9144.092,-9132.376,-9149.987,-9160.976,-9143.549,-9135.973,-9142.093,-9159.568,-9183.0625,-9188.139,-9182.575,-9175.031,-9166.075,-9170.154,-9181.573,-9189.976,-9176.491,-9161.066,-9171.24,-9164.006,-9150.186,-9142.461,-9126.263,-9128.145,-9127.863,-9122.944,-9123.068,-9122.752,-9130.781,-9121.162,-9119.82,-9135.609,-9130.018,-9123.971,-9121.063,-9121.653,-9126.699,-9129.467,-9139.9,-9146.02,-9150.123,-9146.315,-9139.017,-9146.811,-9147.335,-9142.871,-9154.631,-9174.345,-9166.524,-9146.34,-9157.416,-9174.022,-9190.863,-9205.91,-9216.158,-9246.823,-9263.63,-9251.903,-9230.645,-9203.968,-9180.005,-9164.711,-9159.155,-9143.847,-9129.799,-9131.994,-9148.943,-9167.865,-9148.276,-9123.959,-9122.37,-9121.388,-9127.985,-9124.509,-9113.709,-9112.542,-9110.661,-9116.086,-9125.723,-9135.036,-9152.9375,-9162.443,-9164.977,-9174.882,-9175.368,-9189.655,-9224.077,-9234.34,-9231.923,-9218.552,-9194.064,-9197.141,-9215.839,-9227.899,-9227.032,-9210.046,-9189.154,-9173.023,-9173.137,-9179.099,-9171.34,-9151.572,-9136.266,-9141.664,-9150.709,-9151.654,-9155.75,-9170.961,-9186.105,-9173.556,-9159.925,-9163.936,-9146.325,-9124.4795,-9120.522,-9123.663,-9133.652,-9131.186,-9137.325,-9172.289,-9201.114,-9207.224,-9208.653,-9234.033,-9258.726,-9247.078,-9231.14,-9223.74,-9196.375,-9164.157,-9149.343,-9157.514,-9177.21,-9164.96,-9154.564,-9162.822,-9149.328,-9152.034,-9161.797,-9150.8955,-9145.861,-9136.534,-9129.944,-9138.791,-9143.74,-9144.044,-9148.205,-9151.965,-9151.002,-9147.376,-9143.758,-9147.525,-9157.438,-9170.259,-9194.6,-9216.607,-9228.676,-9245.371,-9249.458,-9237.267,-9238.383,-9235.706,-9208.433,-9183.766,-9173.778,-9172.444,-9170.804,-9163.627,-9163.162,-9167.277,-9162.397,-9152.864,-9151.967,-9156.3955,-9158.633,-9164.803,-9182.927,-9187.88,-9164.988,-9169.078,-9189.628,-9173.535,-9159.045,-9164.386,-9165.025,-9160.46,-9160.642,-9177.651,-9195.199,-9191.857,-9183.133,-9186.385,-9190.432,-9171.343,-9150.034,-9148.664,-9140.658,-9152.924,-9197.276,-9223.357,-9220.496,-9216.698,-9261.535,-9304.075,-9285.53,-9263.742,-9239.133,-9206.532,-9178.374,-9148.584,-9138.08,-9132.732,-9130.741,-9136.866,-9137.8125,-9145.783,-9163.716,-9177.747,-9184.476,-9207.859,-9226.891,-9221.957,-9235.234,-9236.352,-9221.722,-9221.706,-9196.618,-9179.497,-9190.16,-9191.073,-9184.203,-9184.346,-9203.753,-9209.293,-9208.585,-9223.225,-9223.93,-9232.993,-9246.482,-9236.092,-9233.041,-9241.532,-9220.624,-9184.394,-9170.966,-9160.546,-9150.334,-9151.746,-9149.949,-9140.67,-9132.621,-9144.912,-9156.354,-9149.388,-9155.707,-9166.745,-9175.616,-9194.653,-9203.019,-9196.476,-9181.818,-9160.693,-9147.993,-9142.588,-9132.489,-9123.978,-9133.474,-9155.897,-9171.8545,-9189.44,-9200.747,-9199.108,-9201.807,-9188.837,-9178.221,-9179.625,-9159.878,-9157.259,-9172.228,-9177.799,-9213.416,-9254.746,-9250.312,-9244.421,-9260.081,-9262.502,-9257.462,-9241.496,-9226.493,-9253.6875,-9285.413,-9289.461,-9289.051,-9294.677,-9288.785,-9244.613,-9190.773,-9157.333,-9128.482,-9097.717,-9077.981,-9087.095,-9114.483,-9142.158,-9157.255,-9165.271,-9184.169,-9203.193,-9235.762,-9264.29,-9250.2705,-9232.364,-9221.655,-9192.264,-9176.324,-9197.271,-9210.433,-9207.425,-9214.476,-9216.123,-9206.482,-9192.07,-9180.846,-9179.057,-9175.069,-9160.498,-9150.765,-9162.239,-9175.844,-9177.936,-9168.05,-9163.139,-9169.101,-9163.45,-9164.153,-9173.074,-9173.855,-9170.973,-9169.451,-9171.442,-9175.673,-9190.593,-9186.689,-9173.931,-9200.387,-9234.886,-9252.233,-9252.597,-9252.531,-9256.097,-9239.499,-9231.148,-9220.348,-9196.431,-9197.512,-9194.179,-9182.693,-9184.317,-9184.263,-9187.575,-9184.377,-9164.91,-9146.019,-9142.968,-9152.98,-9163.578,-9172.065,-9184.139,-9204.493,-9214.504,-9213.171,-9210.089,-9197.502,-9191.508,-9190.363,-9187.863,-9194.637,-9196.076,-9189.288,-9192.329,-9198.84,-9184.447,-9177.393,-9193.304,-9191.649,-9191.603,-9203.111,-9200.177,-9200.209,-9213.939,-9226.899,-9221.786,-9207.463,-9196.977,-9187.1045,-9189.824,-9212.22,-9234.385,-9237.486,-9232.857,-9212.822,-9170.782,-9146.637,-9152.465,-9161.455,-9158.418,-9159.688,-9165.732,-9171.992,-9194.808,-9222.026,-9263.098,-9301.096,-9299.91,-9294.416,-9293.421,-9286.206,-9268.563,-9247.664,-9229.707,-9201.13,-9186.379,-9169.89,-9153.933,-9161.254,-9153.88,-9154.239,-9167.099,-9171.71,-9180.424,-9178.912,-9181.284,-9190.139,-9188.428,-9192.872,-9212.968,-9226.416,-9223.278,-9225.287,-9220.483,-9211.025,-9218.367,-9228.905,-9237.462,-9237.862,-9236.135,-9237.325,-9234.471,-9236.921,-9233.282,-9215.881,-9201.574,-9203.845,-9197.426,-9179.025,-9205.971,-9236.221,-9236.131,-9253.367,-9252.65,-9249.617,-9263.617,-9256.485,-9258.975,-9240.232,-9197.507,-9193.576,-9202.662,-9207.871,-9205.182,-9197.605,-9205.14,-9209.442,-9208.111,-9216.105,-9232.311,-9241.879,-9255.948,-9274.655,-9261.127,-9248.125,-9243.68,-9220.322,-9212.544,-9216.604,-9226.067,-9230.775,-9209.315,-9199.993,-9194.036,-9182.982,-9193.337,-9187.165,-9164.796,-9159.918,-9148.293,-9139.156,-9153.873,-9163.567,-9174.82,-9193.934,-9196.134,-9195.444,-9199.98,-9196.957,-9190.539,-9189.632,-9185.951,-9182.699,-9190.999,-9183.253,-9173.456,-9170.97,-9152.015,-9153.725,-9165.978,-9165.508,-9169.195,-9172.642,-9182.513,-9193.753,-9208.47,-9230.277,-9243.926,-9237.989,-9229.914,-9250.828,-9269.831,-9278.298,-9286.53,-9268.63,-9234.147,-9210.536,-9223.847,-9258.047,-9287.464,-9301.337,-9279.758,-9268.768,-9269.325,-9243.395,-9201.842,-9149.248,-9131.705,-9134.477,-9125.916,-9127.366,-9122.803,-9128.737,-9119.6875,-9104.6455,-9133.9,-9153.026,-9154.645,-9167.741,-9192.56,-9207.045,-9198.5205,-9186.259,-9171.347,-9170.3,-9186.486,-9208.532,-9217.939,-9225.78,-9248.588,-9251.124,-9252.569,-9243.922,-9213.41,-9198.765,-9188.544,-9183.489,-9170.929,-9165.557,-9193.365,-9218.812,-9230.631,-9228.609,-9222.153,-9209.199,-9194.489,-9189.901,-9179.025,-9186.002,-9205.439,-9227.42,-9273.484,-9319.55,-9338.662,-9332.686,-9335.276,-9324.1455,-9272.477,-9219.468,-9181.196,-9159.419,-9108.983,-9074.249,-9108.3545,-9115.804,-9116.7705,-9145.191,-9174.676,-9197.658,-9189.276,-9184.739,-9183.551,-9178.12,-9175.129,-9165.429,-9165.116,-9155.279,-9143.058,-9146.675,-9181.093,-9232.525,-9257.61,-9274.738,-9270.0205,-9253.816,-9253.835,-9243.705,-9242.691,-9245.608,-9236.161,-9225.72,-9213.001,-9194.858,-9171.296,-9175.178,-9196.257,-9204.268,-9201.472,-9190.835,-9200.659,-9227.976,-9257.099,-9271.272,-9273.217,-9297.446,-9318.252,-9326.598,-9321.57,-9308.115,-9306.685,-9281.116,-9242.072,-9199.984,-9157.48,-9154.816,-9170.178,-9171.607,-9171.715,-9198.282,-9216.803,-9210.225,-9221.285,-9210.948,-9179.593,-9167.568,-9162.098,-9194.195,-9272.51,-9342.089,-9409.283,-9498.384,-9513.813,-9447.49,-9399.677,-9335.318,-9253.373,-9198.652,-9155.384,-9122.674,-9105.689,-9108.812,-9111.82,-9128.827,-9145.978,-9136.206,-9132.491,-9126.255,-9134.718,-9136.297,-9125.2705,-9143.1,-9157.758,-9188.828,-9213.764,-9211.152,-9216.137,-9218.137,-9233.153,-9239.596,-9244.763,-9263.248,-9245.062,-9217.165,-9203.195,-9193.144,-9190.983,-9191.811,-9190.477,-9178.361,-9173.109,-9180.14,-9180.382,-9175.383,-9168.812,-9165.576,-9178.1875,-9206.605,-9245.217,-9273.733,-9270.678,-9269.782,-9279.161,-9297.979,-9328.883,-9312.561,-9278.205,-9257.914,-9247.933,-9250.797,-9201.917,-9167.092,-9167.202,-9134.892,-9131.956,-9137.016,-9138.841,-9164.083,-9172.894,-9186.928,-9199.294,-9188.746,-9185.991,-9196.714,-9195.256,-9188.927,-9193.196,-9186.504,-9192.095,-9205.567,-9214.414,-9240.352,-9240.221,-9232.465,-9232.363,-9210.181,-9214.785,-9237.282,-9241.348,-9234.327,-9224.018,-9216.88,-9194.242,-9179.295,-9178.769,-9167.716,-9164.844,-9167.635,-9175.941,-9174.468,-9152.558,-9145.745,-9148.974,-9153.267,-9157.188,-9160.543,-9181.026,-9199.384,-9213.55,-9251.438,-9272.673,-9259.072,-9268.062,-9289.133,-9306.516,-9313.146,-9268.599,-9222.587,-9204.649,-9192.858,-9169.184,-9138.449,-9158.001,-9176.423,-9182.921,-9222.004,-9236.788,-9237.375,-9231.334,-9216.628,-9223.043,-9224.227,-9207.602,-9189.686,-9173.788,-9148.011,-9127.421,-9117.478,-9120.817,-9136.454,-9135.175,-9142.442,-9152.354,-9157.622,-9177.568,-9188.686,-9213.027,-9248.077,-9257.665,-9239.043,-9223.971,-9238.642,-9251.916,-9278.813,-9310.893,-9319.9375,-9323.944,-9275.246,-9214.86,-9191.781,-9150.0625,-9142.707,-9157.731,-9144.638,-9147.339,-9138.6455,-9138.995,-9149.604,-9136.0205,-9135.863,-9131.6875,-9134.87,-9139.698,-9137.696,-9163.18,-9179.961,-9194.609,-9209.643,-9208.696,-9212.448,-9214.392,-9218.948,-9230.964,-9237.57,-9229.427,-9221.54,-9228.916,-9236.027,-9229.594,-9222.454,-9222.246,-9207.815,-9186.01,-9161.093,-9137.396,-9131.197,-9120.203,-9122.656,-9144.845,-9157.794,-9179.199,-9213.326,-9252.299,-9274.97,-9277.327,-9294.96,-9315.251,-9322.895,-9326.056,-9297.808,-9225.364,-9181.095,-9175.792,-9124.836,-9089.863,-9108.043,-9108.616,-9122.677,-9142.496,-9154.292,-9166.945,-9160.966,-9173.279,-9181.681,-9173.053,-9169.38,-9170.108,-9174.247,-9145.523,-9141.345,-9168.978,-9164.346,-9171.533,-9177.889,-9176.355,-9191.278,-9201.282,-9228.716,-9256.758,-9251.589,-9243.464,-9236.328,-9207.286,-9179.602,-9172.9795,-9178.378,-9189.011,-9181.691,-9180.453,-9212.18,-9236.103,-9229.739,-9210.067,-9206.648,-9218.138,-9236.504,-9247.827,-9238.7705,-9231.897,-9213.852,-9183.485,-9154.288,-9134.903,-9124.676,-9107.895,-9118.827,-9143.56,-9152.718,-9140.257,-9121.933,-9138.121,-9164.2,-9202.357,-9222.291,-9202.731,-9219.725,-9231.8955,-9175.551,-9128.254,-9113.057,-9076.897,-9057.431,-9059.616,-9059.672,-9071.72,-9077.547,-9094.879,-9106.096,-9093.257,-9090.121,-9088.4375,-9088.33,-9109.705,-9130.8,-9107.291,-9083.98,-9081.641,-9063.467,-9039.567,-9001.905,-8978.681,-8963.012,-8956.021,-8991.852,-8992.468,-8981.167,-9004.013,-9002.104,-8969.264,-8918.563,-8881.7,-8861.362,-8829.513,-8807.446,-8804.69,-8812.419,-8825.735,-8835.328,-8848.659,-8862.032,-8858.968,-8866.88,-8880.139,-8868.981,-8855.171,-8839.118,-8831.73,-8847.988,-8867.223,-8874.605,-8860.799,-8846.408,-8837.494,-8821.348,-8807.438,-8802.766,-8813.322,-8820.465,-8808.768,-8803.14,-8831.069,-8875.011,-8878.618,-8849.453,-8823.835,-8798.221,-8795.292,-8793.947,-8765.451,-8757.137,-8760.598,-8761.758,-8779.21,-8794.585,-8802.073,-8808.724,-8820.122,-8845.944,-8866.827,-8879.946,-8937.634,-8950.282,-8865.672,-8832.844,-8804.001,-8738.525,-8728.268,-8722.95,-8710.046,-8717.99,-8736.798,-8754.334,-8774.96,-8796.364,-8795.496,-8801.846,-8805.261,-8810.089,-8840.635,-8868.341,-8888.103,-8887.843,-8887.974,-8894.873,-8901.616,-8902.26,-8870.843,-8857.383,-8837.3545,-8812.71,-8830.613,-8828.588,-8839.893,-8845.14,-8813.087,-8827.63,-8843.728,-8844.018,-8861.864,-8867.985,-8849.066,-8820.626,-8821.166,-8822.003,-8821.18,-8838.804,-8845.119
-8871.544,-8908.334,-8937.974,-8951.767,-8918.068,-8888.802,-8878.616,-8891.958,-8938.143,-8968.34,-8984.09,-8982.859,-8968.506,-8966.455,-8942.433,-8908.404,-8914.119,-8924.315,-8902.371,-8890.665,-8921.08,-8954.1455,-8955.226,-8946.237,-8944.287,-8928.942,-8887.514,-8858.834,-8860.915,-8860.329,-8869.48,-8889.875,-8899.411,-8910.829,-8921.023,-8940.733,-8978.433,-9018.192,-9058.663,-9091.101,-9077.562,-9038.623,-9035.688,-8996.005,-8937.183,-8942.802,-8943.047,-8959.607,-8970.646,-8938.788,-8951.223,-8978.264,-8985.4,-8971.543,-8951.358,-8961.544,-8965.761,-8967.898,-8991.041,-9002.748,-9015.062,-9066.322,-9123.055,-9164.919,-9190.156,-9182.178,-9151.334,-9101.995,-9062.652,-9021.586,-8999.244,-9022.781,-9026.458,-9035.967,-9032.107,-9030.193,-9097.041,-9128.945,-9127.779,-9139.056,-9105.163,-9059.979,-9060.183,-9033.198,-8977.234,-8990.095,-9011.197,-8992.073,-8976.028,-8979.035,-8989.658,-8994.578,-9014.496,-9023.883,-9021.048,-9025.386,-9022.816,-9020.166,-9030.009,-9073.244,-9122.905,-9156.827,-9191.489,-9226.06,-9230.018,-9177.542,-9140.281,-9143.059,-9139.492,-9115.102,-9071.786,-9079.613,-9141.386,-9216.796,-9295.683,-9326.105,-9320.446,-9256.312,-9151.737,-9092.374,-9051.834,-9068.079,-9105.971,-9124.175,-9170.517,-9129.5205,-9049.061,-9009.444,-8951.708,-8933.086,-8934.141,-8945.885,-8961.194,-8943.633,-8957.557,-8963.932,-8951.055,-8949.256,-8929.735,-8922.191,-8923.893,-8932.13,-8968.415,-9022.865,-9080.674,-9124.22,-9150.386,-9151.576,-9140.197,-9131.275,-9112.139,-9094.459,-9074.541,-9056.482,-9060.277,-9048.875,-9027.038,-8988.595,-8920.131,-8907.627,-8921.853,-8928.235,-8954.767,-8970.583,-9002.643,-9013.849,-9007.692,-9031.467,-9045.29,-9066.793,-9094.303,-9156.191,-9198.13,-9154.793,-9131.173,-9104.7705,-9052.577,-8999.631,-8955.262,-8947.668,-8949.7,-8985.102,-9014.521,-9046.558,-9108.469,-9086.271,-9038.164,-9042.31,-9031.747,-8986.738,-8963.85,-8984.373,-9011.064,-9022.6875,-8983.996,-8960.774,-8971.274,-8923.458,-8894.455,-8905.899,-8893.772,-8891.702,-8908.979,-8931.412,-8936.988,-8929.29,-8941.783,-8961.604,-8979.955,-9012.509,-9051.674,-9068.147,-9090.205,-9139.134,-9142.057,-9131.815,-9158.17,-9135.413,-9086.162,-9053.144,-8998.974,-8950.866,-8912.283,-8896.471,-8914.89,-8912.532,-8909.817,-8947.335,-8991.294,-8982.971,-8958.851,-8978.7,-9005.169,-9026.289,-9026.312,-9047.391,-9103.695,-9093.516,-9063.23,-9044.147,-9054.909,-9095.601,-9046.888,-9010.754,-9018.823,-8978.144,-8958.831,-8949.389,-8959.292,-8990.887,-9011.047,-9045.084,-9087.57,-9133.261,-9068.455,-8990.947,-9010.724,-8989.777,-9028.993,-9110.89,-9143.489,-9155.782,-9135.164,-9146.444,-9179.811,-9227.359,-9190.868,-9117.295,-9100.156,-9000.785,-8979.544,-9031.995,-9049.228,-9128.525,-9191.754,-9256.371,-9345.109,-9456.928,-9553.97,-9525.334,-9419.654,-9270.123,-9108.116,-8978.931,-8920.633,-8928.489,-8937.956,-8915.31,-8849.554,-8797.23,-8750.576,-8737.157,-8752.825,-8740.627,-8753.714,-8736.361,-8717.612,-8710.079,-8680.724,-8714.629,-8753.158,-8786.515,-8845.462,-8918.249,-9020.681,-9144.21,-9243.708,-9239.423,-9174.316,-9076.674,-8965.369,-8898.049,-8841.263,-8809.865,-8805.072,-8810.479,-8829.917,-8829.179,-8802.473,-8764.084,-8740.767,-8767.179,-8857.384,-8908.789,-8866.708,-8839.058,-8817.652,-8789.301,-8816.15,-8868.581,-8914.735,-8960.645,-8985.347,-8935.309,-8816.468,-8686.845,-8580.964,-8514.11,-8485.845,-8503.815,-8529.018,-8532.081,-8540.19,-8535.604,-8508.631,-8479.279,-8479.591,-8525.33,-8592.043,-8654.593,-8691.813,-8702.918,-8651.482,-8552.392,-8493.366,-8478.343,-8500.137,-8565.077,-8628.477,-8619.662,-8593.527,-8615.569,-8591.082,-8563.677,-8560.737,-8455.416,-8306.291,-8213.158,-8168.747,-8161.6655,-8201.25,-8298.37,-8384.157,-8412.425,-8413.88,-8349.699,-8237.721,-8181.0933,-8172.594,-8155.9585,-8131.135,-8156.321,-8185.5957,-8167.6343,-8174.7925,-8176.3696,-8199.276,-8238.268,-8199.916,-8190.677,-8209.724,-8200.648,-8220.427,-8243.304,-8236.151,-8162.5894,-8028.731,-7896.8955,-7814.3076,-7845.39,-7962.176,-8041.5693,-8039.8745,-8025.3804,-8004.75,-7929.2886,-7886.628,-7911.8145,-7917.1636,-7929.849,-7948.3423,-7935.656,-7918.9175,-7867.558,-7818.338,-7822.4126,-7860.046,-7942.333,-8025.3066,-8033.8594,-7974.7095,-7911.0464,-7834.932,-7737.2847,-7696.836,-7723.0967,-7805.6875,-7948.9956,-8030.1787,-7957.7524,-7820.7407,-7682.6934,-7576.7285,-7538.839,-7510.614,-7500.2593,-7535.855,-7582.688,-7612.62,-7620.972,-7636.2236,-7614.0967,-7569.3755,-7553.4546,-7533.7236,-7531.2407,-7531.193,-7522.856,-7535.914,-7542.464,-7547.097,-7573.059,-7610.829,-7625.576,-7610.1396,-7588.107,-7561.5527,-7553.9575,-7575.1113,-7618.4434,-7658.8667,-7647.3345,-7641.2314,-7649.948,-7591.095,-7517.2573,-7482.03,-7470.833,-7472.102,-7474.4243,-7466.3926,-7412.495,-7370.248,-7382.6123,-7404.513,-7438.739,-7452.054,-7430.095,-7409.557,-7393.7114,-7386.6313,-7396.697,-7430.305,-7477.748,-7519.1626,-7546.079,-7572.6963,-7561.9365,-7519.4067,-7543.1914,-7558.24,-7540.84,-7579.985,-7584.5645,-7555.427,-7554.229,-7521.2227,-7466.3184,-7430.3223,-7407.353,-7390.55,-7385.97,-7397.2617,-7430.4375,-7465.4927,-7485.7837,-7537.463,-7583.6694,-7578.292,-7611.028,-7677.686,-7675.1577,-7628.3335,-7533.285,-7391.5176,-7378.664,-7436.8364,-7426.6797,-7448.597,-7492.261,-7540.0845,-7600.8335,-7618.093,-7656.3735,-7709.704,-7705.0283,-7713.2793,-7736.928,-7639.0317,-7481.607,-7389.9585,-7365.012,-7456.726,-7557.6494,-7594.977,-7652.496,-7650.5615,-7601.6206,-7575.9844,-7544.625,-7518.1284,-7501.579,-7507.853,-7542.4966,-7553.0547,-7453.52,-7317.2324,-7260.7817,-7206.228,-7169.039,-7196.601,-7263.3506,-7346.863,-7369.2515,-7380.167,-7382.465,-7351.184,-7359.7583,-7350.6416,-7339.6094,-7355.9087,-7353.102,-7352.099,-7356.5825,-7379.308,-7412.246,-7453.4727,-7512.5254,-7607.2905,-7698.6387,-7679.564,-7609.0474,-7528.586,-7443.0703,-7419.7705,-7475.9966,-7581.053,-7562.91,-7431.834,-7341.64,-7215.6733,-7112.783,-7123.467,-7125.228,-7128.509,-7160.9146,-7167.57,-7202.336,-7265.928,-7301.451,-7333.5063,-7378.8584,-7402.9683,-7370.6123,-7335.099,-7349.496,-7358.6025,-7359.6436,-7394.571,-7456.2485,-7523.617,-7552.578,-7543.211,-7507.0903,-7456.554,-7468.596,-7504.4917,-7451.851,-7347.3867,-7273.275,-7254.9224,-7275.9673,-7245.5635,-7190.9814,-7184.8726,-7159.9316,-7183.7383,-7256.053,-7314.2803,-7460.301,-7615.544,-7676.4033,-7619.012,-7479.692,-7394.9326,-7320.3726,-7226.83,-7149.7974,-7073.4775,-7126.854,-7273.8193,-7293.4014,-7253.5303,-7230.5273,-7166.489,-7128.3516,-7126.1626,-7121.135,-7137.98,-7140.107,-7079.0273,-7027.833,-7013.0645,-7003.5156,-7018.666,-7000.084,-7028.8394,-7196.8276,-7347.4536,-7367.5693,-7272.9785,-7167.4014,-7112.9194,-7110.3228,-7130.0317,-7098.697,-7064.412,-7047.834,-7024.5024,-7059.227,-7106.9893,-7108.9697,-7155.225,-7245.878,-7238.2803,-7130.4233,-7045.066,-6966.6313,-6888.359,-6868.9995,-6862.8936,-6892.976,-7007.1562,-7084.052,-7055.897,-7020.3433,-6974.8394,-6911.6714,-6906.4326,-6886.4966,-6846.6123,-6823.9062,-6793.1484,-6824.333,-6913.8022,-7013.9434,-7114.986,-7262.66,-7445.4966,-7459.7725,-7295.2144,-7136.3506,-6987.888,-6834.056,-6753.2036,-6722.725,-6694.9673,-6672.5225,-6692.07,-6774.514,-6830.7246,-6858.8105,-6870.124,-6854.063,-6815.9424,-6713.68,-6705.0205,-6725.329,-6595.6,-6509.8325,-6483.342,-6473.136,-6511.779,-6521.0264,-6548.0957,-6591.6416,-6618.86,-6649.3447,-6652.729,-6677.616,-6713.7354,-6680.7085,-6620.7896,-6528.381,-6407.107,-6382.161,-6406.7764,-6391.577,-6385.4053,-6398.384,-6429.794,-6483.9336,-6629.3,-6906.5186,-7130.028,-7159.889,-7037.6963,-6762.411,-6397.3857,-6192.5254,-6138.694,-6089.1235,-6151.0415,-6252.6743,-6284.778,-6288.3765,-6235.2837,-6215.7476,-6205.283,-6151.338,-6124.3574,-6097.378,-6134.7607,-6212.7744,-6272.353,-6360.0513,-6405.579,-6404.1426,-6395.475,-6367.0903,-6339.287,-6318.9277,-6266.3877,-6172.4155,-6072.8022,-5984.702,-5915.397,-5864.389,-5888.7793,-5954.14,-6025.4614,-6131.094,-6097.932,-6006.6367,-5985.361,-5895.2793,-5858.3696,-5890.7964,-5897.853,-5958.9795,-6012.799,-6039.2983,-6039.39,-5958.0024,-5889.618,-5862.8975,-5811.5396,-5770.3955,-5752.922,-5745.4497,-5801.943,-5888.971,-5895.4907,-5850.2676,-5856.9565,-5862.3403,-5822.7666,-5838.8975,-5882.5244,-5916.306,-5956.4556,-5921.023,-5883.467,-5882.3433,-5791.1724,-5696.9897,-5668.0156,-5625.731,-5608.518,-5625.429,-5630.9727,-5635.121,-5645.101,-5666.8774,-5695.692,-5733.119,-5775.1777,-5804.483,-5860.2085,-5978.6943,-6085.789,-6084.2075,-6020.4497,-5973.766,-5891.0327,-5745.651,-5627.8403,-5586.8994,-5637.5454,-5756.9844,-5869.597,-5935.033,-5943.653,-5971.47,-5924.591,-5770.1733,-5791.5,-5802.413,-5637.9736,-5579.133,-5590.629,-5579.0425,-5573.542,-5605.0903,-5687.923,-5748.235,-5754.2886,-5705.5615,-5680.164,-5682.2764,-5678.05,-5693.4565,-5688.937,-5703.579,-5751.0693,-5761.9824,-5755.8857,-5820.166,-5887.4785,-5861.0874,-5803.7354,-5722.6733,-5700.9023,-5704.733,-5628.9546,-5625.8843,-5659.394,-5659.614,-5668.53,-5675.3105,-5692.388,-5689.053,-5742.4365,-5831.7534,-5809.0806,-5747.24,-5740.25,-5702.473,-5610.5576,-5591.4263,-5598.518,-5580.7476,-5613.6333,-5665.4995,-5719.118,-5755.5527,-5771.055,-5781.8984,-5760.4395,-5758.2676,-5763.396,-5705.5347,-5625.8853,-5546.598,-5472.263,-5441.184,-5458.7085,-5544.9004,-5668.7886,-5756.679,-5813.7134,-5854.159,-5883.8057,-5935.836,-5976.416,-5923.5366,-5815.547,-5702.781,-5630.0815,-5621.0273,-5564.163,-5528.943,-5564.1294,-5564.645,-5613.982,-5682.594,-5677.0864,-5658.4443,-5614.627,-5542.831,-5495.3984,-5471.033,-5471.7812,-5517.7373,-5579.0376,-5623.456,-5652.281,-5675.9517,-5706.0,-5708.575,-5679.136,-5661.436,-5658.2236,-5659.692,-5663.2134,-5665.333,-5659.419,-5639.8096,-5612.8213,-5591.7705,-5582.126,-5595.0635,-5631.967,-5656.538,-5686.711,-5727.5913,-5765.9727,-5858.904,-5942.2856,-5917.0415,-5824.347,-5735.1416,-5660.383,-5592.868,-5582.633,-5611.0034,-5625.8555,-5640.4897,-5639.634,-5603.8457,-5586.089,-5640.415,-5675.5693,-5625.507,-5585.371,-5589.2197,-5589.787,-5615.669,-5682.041,-5736.091,-5767.8745,-5768.759,-5749.622,-5707.7456,-5624.0264,-5559.347,-5507.57,-5473.6123,-5515.728,-5565.829,-5574.1895,-5614.554,-5674.097,-5672.638,-5678.6104,-5692.0938,-5662.481,-5664.8564,-5661.5835,-5660.0454,-5707.094,-5709.688,-5682.5205,-5700.9517,-5730.721,-5694.658,-5643.4434,-5626.0444,-5590.6694,-5585.162,-5610.1685,-5643.9746,-5695.83,-5711.8413,-5714.0986,-5700.901,-5675.4976,-5656.0107,-5660.346,-5749.7646,-5762.9927,-5690.9683,-5730.1797,-5784.729,-5845.2466,-5955.798,-5936.665,-5809.5244,-5712.526,-5615.814,-5559.775,-5554.334,-5526.938,-5557.561,-5616.888,-5629.712,-5655.4854,-5675.285,-5661.0063,-5622.7056,-5579.9487,-5560.6147,-5560.608,-5542.15,-5516.6523,-5522.778,-5525.4683,-5541.688,-5582.2944,-5638.0796,-5698.5864,-5731.185,-5805.344,-5873.7363,-5878.4663,-5892.539,-5875.841,-5820.6333,-5765.844,-5712.9336,-5696.654,-5690.806,-5678.215,-5717.93,-5749.03,-5683.8765,-5589.8784,-5527.941,-5517.2686,-5564.3804,-5686.5317,-5830.9014,-5851.6963,-5795.0273,-5707.5967,-5595.8706,-5567.9663,-5582.7188,-5572.972,-5561.4175,-5579.1016,-5589.402,-5574.3315,-5595.3745,-5660.1963,-5776.24,-5808.313,-5730.819,-5721.8853,-5706.3325,-5633.8374,-5592.0435,-5592.4746,-5587.2036,-5564.1035,-5578.739,-5584.746,-5581.837,-5592.6416,-5588.3774,-5607.553,-5598.365,-5557.494,-5542.781,-5521.1636,-5510.5317,-5520.2266,-5523.8105,-5526.6377,-5538.5586,-5548.731,-5556.757,-5586.169,-5594.8413,-5569.598,-5564.4844,-5565.554,-5555.571,-5549.4473,-5544.224,-5552.6636,-5564.7583,-5546.041,-5525.7583,-5528.9756,-5528.563,-5543.1655,-5598.7773,-5632.671,-5614.5845,-5626.9746,-5669.2397,-5684.97,-5718.619,-5751.702,-5751.353,-5727.2373,-5634.2593,-5528.703,-5422.2427,-5314.5425,-5302.582,-5308.8467,-5321.445,-5367.726,-5389.074,-5414.9526,-5404.2217,-5392.295,-5426.367,-5437.3057,-5430.2646,-5420.4644,-5430.5845,-5452.4473,-5481.187,-5486.405,-5451.3774,-5483.6553,-5532.1123,-5545.1543,-5574.569,-5595.567,-5612.818,-5630.6436,-5674.9067,-5703.702,-5665.2285,-5627.773,-5566.011,-5473.857,-5424.9673,-5432.637,-5464.7793,-5509.223,-5569.231,-5579.9634,-5564.8896,-5574.649,-5556.2227,-5520.626,-5503.5156,-5524.6597,-5548.4263,-5532.8623,-5534.175,-5562.4478,-5578.9756,-5567.865,-5576.226,-5636.874,-5684.2935,-5674.2812,-5637.593,-5625.312,-5617.2637,-5622.5947,-5650.9272,-5660.3145,-5692.1167,-5726.107,-5723.3037,-5723.748,-5726.2456,-5674.2583,-5590.07,-5584.329,-5622.271,-5646.0737,-5673.0796
-5716.4556,-5749.649,-5684.875,-5629.2847,-5657.409,-5641.306,-5592.4116,-5584.9194,-5624.5947,-5650.132,-5659.3228,-5697.647,-5720.227,-5746.7393,-5770.4585,-5767.814,-5779.054,-5788.81,-5832.803,-5902.816,-5916.8574,-5887.819,-5833.3506,-5757.3296,-5708.9004,-5713.8345,-5749.323,-5815.1416,-5905.3486,-5891.1245,-5762.263,-5720.3975,-5702.2266,-5628.164,-5645.558,-5688.054,-5711.0234,-5747.5996,-5749.9126,-5760.411,-5787.7837,-5817.8276,-5849.3105,-5871.5894,-5885.7397,-5877.494,-5839.728,-5795.219,-5786.5107,-5779.9004,-5797.2363,-5873.5376,-5935.245,-5981.0215,-6009.6484,-6001.7124,-5931.136,-5810.0586,-5731.99,-5685.06,-5663.6196,-5672.222,-5679.6206,-5711.6694,-5740.089,-5760.4746,-5806.491,-5831.7437,-5865.658,-5958.6484,-6026.921,-6087.4175,-6152.5977,-6109.3516,-6020.94,-5945.7153,-5847.147,-5771.4165,-5771.3066,-5825.82,-5812.4507,-5743.9062,-5710.896,-5695.035,-5711.3296,-5736.2505,-5756.319,-5782.2217,-5788.9326,-5798.897,-5808.399,-5816.6465,-5834.0723,-5844.486,-5845.5103,-5848.6543,-5837.0938,-5804.977,-5814.074,-5854.126,-5892.281,-5916.8545,-5911.7197,-5921.0913,-5921.0674,-5908.2827,-5925.7617,-5932.782,-5916.049,-5886.943,-5859.3374,-5858.8276,-5880.8364,-5900.9595,-5909.0205,-5900.033,-5868.3345,-5849.9546,-5857.6694,-5855.136,-5816.389,-5823.9854,-5919.6885,-5948.9976,-5952.6333,-6027.243,-6050.666,-6040.0464,-6025.298,-5969.758,-5926.2944,-5890.703,-5866.852,-5856.5205,-5836.6016,-5846.7305,-5867.67,-5859.267,-5837.435,-5856.066,-5910.5845,-5922.9604,-5932.1646,-5939.5303,-5929.2246,-5934.19,-5880.1436,-5830.6323,-5814.7856,-5777.939,-5786.272,-5805.333,-5845.285,-5880.899,-5861.1455,-5870.054,-5883.585,-5908.7666,-5936.3584,-5933.1367,-5955.1216,-5965.1333,-5959.559,-5947.1367,-5906.2095,-5896.6006,-5935.952,-5963.2754,-5947.5205,-5920.6704,-5906.811,-5913.5605,-5930.29,-5930.801,-5911.0557,-5884.397,-5895.965,-5927.908,-5943.9917,-5984.513,-6029.451,-6051.265,-6047.8164,-6009.008,-5938.295,-5836.959,-5811.6807,-5862.0176,-5865.0835,-5869.1514,-5895.6284,-5924.127,-5976.648,-6024.4346,-6042.916,-6055.5156,-6103.5225,-6129.857,-6127.31,-6126.474,-6081.177,-6026.9688,-5928.727,-5824.1997,-5828.304,-5854.18,-5896.2773,-5955.5425,-5976.7407,-6028.241,-6113.501,-6142.6533,-6085.827,-6013.954,-5945.3765,-5881.334,-5874.0723,-5893.872,-5902.9473,-5879.973,-5852.48,-5854.7656,-5862.7544,-5900.6494,-5976.2344,-6092.8936,-6216.0747,-6268.1494,-6226.592,-6140.415,-6100.7383,-6058.025,-6030.9316,-6083.6045,-6113.26,-6123.6885,-6104.078,-6046.9546,-5993.4844,-5900.8125,-5855.184,-5864.188,-5845.697,-5845.825,-5880.223,-5923.149,-5925.463,-5903.0684,-5884.9653,-5831.015,-5796.603,-5806.339,-5818.7266,-5844.655,-5874.577,-5897.5024,-5925.2227,-5958.219,-5985.5073,-6017.5757,-6063.1265,-6085.6885,-6090.7017,-6117.7515,-6123.861,-6091.6895,-6089.198,-6071.2124,-6009.9517,-5990.2026,-5983.597,-5971.6177,-5968.332,-5963.5303,-5982.387,-6004.0146,-6078.6567,-6170.5967,-6157.81,-6117.038,-6074.7646,-6044.0605,-6061.8413,-6037.462,-5953.861,-5863.6665,-5841.2207,-5876.6763,-5883.4297,-5925.451,-6060.823,-6222.333,-6318.878,-6341.978,-6308.119,-6156.221,-5969.286,-5877.6934,-5867.677,-5893.28,-5879.2427,-5864.777,-5893.0625,-5923.7676,-5992.388,-6049.484,-6055.5117,-6014.157,-5955.2207,-5942.9897,-5909.373,-5879.929,-5899.66,-5906.752,-5891.9766,-5884.863,-5916.5605,-5956.8247,-5998.6978,-6037.237,-6061.141,-6082.2915,-6089.061,-6098.905,-6138.81,-6178.639,-6120.453,-6060.4565,-6044.527,-5956.927,-5935.3125,-5952.235,-5906.461,-5907.5435,-5935.505,-5984.8564,-6073.3745,-6184.3687,-6270.3477,-6258.182,-6232.54,-6224.2715,-6161.586,-6123.807,-6175.1953,-6184.236,-6065.113,-5929.7773,-5887.915,-5891.7495,-5875.1274,-5893.4365,-5942.52,-5942.5483,-5923.2563,-5925.3496,-5937.041,-5935.9717,-5921.851,-5946.9316,-5990.0693,-6000.8657,-6017.653,-6038.0625,-6026.5435,-6001.1245,-5987.357,-5998.1323,-6018.462,-6023.3306,-6017.914,-6028.79,-6048.561,-6047.0464,-6045.4585,-6052.7725,-6061.182,-6076.3184,-6074.0635,-6072.1914,-6090.495,-6119.681,-6164.3076,-6184.3667,-6147.793,-6089.666,-6076.314,-6100.261,-6127.2207,-6139.9717,-6100.788,-6098.3774,-6133.112,-6111.039,-6089.057,-6069.039,-6044.284,-6021.198,-5994.337,-6015.2544,-6036.34,-6018.11,-6008.0376,-6020.874,-6021.9272,-5996.3813,-5990.0615,-6009.7295,-6043.769,-6080.383,-6108.1377,-6140.7363,-6150.1357,-6162.062,-6181.228,-6167.9033,-6144.112,-6076.992,-6016.97,-6025.4966,-6075.442,-6170.3164,-6237.318,-6241.092,-6199.7603,-6132.3257,-6057.055,-5994.926,-5993.294,-5983.6406,-5977.935,-6004.864,-6006.2305,-6028.083,-6047.4854,-6058.7314,-6113.2964,-6156.309,-6138.987,-6096.385,-6060.201,-6012.438,-5989.934,-6015.338,-6065.343,-6132.242,-6198.4243,-6255.5234,-6294.1646,-6294.2334,-6245.215,-6212.8203,-6187.6836,-6132.1133,-6117.4253,-6088.084,-6059.1304,-6089.1333,-6100.0127,-6114.3066,-6116.827,-6097.1133,-6127.587,-6176.5825,-6182.1353,-6120.0825,-6024.0845,-5982.424,-6000.546,-6024.546,-6091.993,-6166.5405,-6217.5024,-6303.6445,-6353.4434,-6386.8306,-6403.1157,-6317.712,-6186.287,-6052.702,-6001.5693,-6010.5566,-6053.2783,-6198.9175,-6244.737,-6159.4863,-6109.576,-6061.2275,-6046.26,-6063.733,-6079.968,-6138.811,-6215.0693,-6279.1704,-6304.0645,-6325.119,-6327.4175,-6245.5376,-6159.372,-6116.845,-6122.626,-6156.5483,-6217.083,-6300.4966,-6308.4453,-6269.5264,-6211.4385,-6132.5317,-6115.559,-6125.654,-6112.54,-6096.7603,-6055.4863,-6050.942,-6130.779,-6133.406,-6069.1675,-6064.812,-6063.3633,-6050.916,-6038.505,-6037.3975,-6051.3804,-6055.4985,-6073.053,-6087.658,-6093.3213,-6107.332,-6136.188,-6173.263,-6205.18,-6252.4893,-6303.799,-6328.662,-6311.798,-6249.752,-6163.04,-6085.5713,-6026.4814,-5992.1597,-5998.4785,-6035.0728,-6096.1406,-6152.519,-6209.3823,-6268.002,-6300.9326,-6314.805,-6258.658,-6198.7114,-6190.297,-6141.312,-6092.8354,-6059.637,-6018.052,-6017.1284,-6034.447,-6042.301,-6052.0737,-6068.604,-6080.563,-6095.4766,-6123.9185,-6139.723,-6150.0986,-6157.096,-6150.6533,-6147.2593,-6164.3022,-6211.078,-6216.5747,-6167.914,-6148.323,-6132.1606,-6108.534,-6122.833,-6139.7075,-6131.0083,-6133.9336,-6155.4185,-6157.011,-6146.571,-6143.357,-6146.462,-6150.3853,-6131.361,-6108.7666,-6095.692,-6083.4463,-6085.901,-6083.212,-6089.084,-6140.124,-6189.924,-6203.2583,-6214.5044,-6218.644,-6192.746,-6176.0117,-6173.267,-6162.7573,-6169.053,-6179.8813,-6177.0557,-6180.241,-6172.047,-6157.459,-6160.2695,-6153.6094,-6136.051,-6126.038,-6140.758,-6169.5073,-6158.307,-6137.1875,-6145.9673,-6158.7207,-6187.4507,-6219.334,-6227.168,-6229.6978,-6214.4385,-6183.6934,-6169.0674,-6163.465,-6164.1777,-6195.94,-6253.7256,-6292.686,-6297.2505,-6274.7397,-6228.888,-6200.1323,-6196.9775,-6164.704,-6133.949,-6140.411,-6110.6123,-6089.7505,-6138.264,-6174.5586,-6204.6055,-6244.4995,-6276.0225,-6308.2046,-6294.3804,-6255.1206,-6230.1514,-6200.1763,-6158.5874,-6114.1875,-6120.53,-6151.8994,-6169.4824,-6226.8037,-6300.479,-6345.4565,-6343.46,-6322.4077,-6328.9976,-6288.799,-6226.223,-6218.4614,-6193.253,-6165.6567,-6160.7886,-6149.5093,-6155.921,-6140.787,-6118.4844,-6131.088,-6148.276,-6166.587,-6179.691,-6200.3926,-6224.4243,-6232.8022,-6238.206,-6236.3564,-6236.848,-6247.4697,-6263.1323,-6273.4736,-6280.5186,-6286.274,-6285.8223,-6298.6377,-6306.934,-6304.3633,-6288.0425,-6258.962,-6261.6367,-6252.5933,-6200.385,-6157.983,-6149.0264,-6165.042,-6183.8633,-6208.6636,-6256.498,-6297.47,-6306.417,-6310.2666,-6289.1772,-6242.029,-6233.2456,-6271.0186,-6336.789,-6356.1963,-6316.8726,-6295.81,-6268.934,-6240.9624,-6218.474,-6204.3457,-6243.4214,-6288.0522,-6329.24,-6330.0264,-6277.5293,-6284.713,-6281.1763,-6239.014,-6261.651,-6304.3506,-6333.217,-6332.319,-6287.4917,-6264.614,-6300.413,-6351.833,-6355.1855,-6310.9272,-6269.659,-6260.4043,-6271.083,-6314.0615,-6321.4404,-6223.62,-6186.8267,-6203.1333,-6149.774,-6130.9155,-6131.5225,-6131.279,-6174.659,-6206.2417,-6230.8594,-6221.3203,-6187.6113,-6195.5566,-6200.441,-6212.027,-6257.6694,-6290.141,-6325.676,-6379.102,-6375.7476,-6355.079,-6393.6064,-6396.17,-6340.0303,-6266.3223,-6202.922,-6190.3354,-6168.0645,-6167.6816,-6208.85,-6224.4097,-6235.5884,-6227.92,-6251.9688,-6318.7837,-6338.2573,-6338.187,-6324.17,-6299.1753,-6282.5137,-6273.2817,-6283.0977,-6292.9565,-6299.8804,-6261.5166,-6235.189,-6272.963,-6256.926,-6222.9917,-6244.6484,-6311.6855,-6357.06,-6338.1396,-6354.3525,-6344.469,-6295.9707,-6316.71,-6354.643,-6370.55,-6354.5454,-6348.1973,-6313.2104,-6213.509,-6194.8403,-6235.1084,-6266.1655,-6276.762,-6256.25,-6261.8423,-6254.6167,-6228.265,-6223.81,-6228.5264,-6228.941,-6224.6963,-6238.272,-6239.163,-6248.613,-6284.358,-6295.7217,-6314.357,-6361.1455,-6431.7617,-6487.534,-6473.098,-6418.4355,-6341.2466,-6262.2476,-6228.3643,-6231.2007,-6244.6406,-6251.125,-6246.043,-6246.5,-6248.957,-6255.3354,-6271.9634,-6276.453,-6253.3726,-6207.076,-6185.3403,-6190.0986,-6194.1973,-6234.484,-6264.2715,-6267.033,-6310.785,-6351.9673,-6371.06,-6400.6597,-6405.612,-6365.291,-6327.405,-6337.125,-6359.816,-6343.468,-6326.0425,-6354.8296,-6354.66,-6302.418,-6272.3037,-6251.6357,-6259.3813,-6284.9844,-6268.8535,-6269.114,-6275.527,-6274.584,-6295.224,-6300.307,-6305.8833,-6294.253,-6267.2686,-6270.2295,-6270.399,-6268.9883,-6263.8745,-6252.685,-6258.4985,-6262.4814,-6264.578,-6283.41,-6307.731,-6325.0474,-6354.588,-6385.9766,-6412.5757,-6430.4136,-6410.946,-6394.118,-6390.2886,-6400.9883,-6447.0835,-6474.399,-6439.0327,-6373.0986,-6367.145,-6378.191,-6328.4214,-6295.304,-6283.5664,-6259.525,-6276.4575,-6349.6,-6367.647,-6323.52,-6330.315,-6333.679,-6335.9478,-6376.8228,-6419.566,-6437.9424,-6365.7646,-6286.0103,-6250.7812,-6240.1343,-6276.9844,-6283.97,-6283.2417,-6317.567,-6353.4844,-6395.474,-6440.431,-6460.763,-6449.5137,-6446.578,-6421.971,-6386.742,-6360.731,-6320.7656,-6328.819,-6310.5464,-6259.9326,-6277.7554,-6278.5703,-6268.4014,-6299.309,-6314.7925,-6320.2534,-6336.2324,-6332.0913,-6323.9434,-6340.766,-6351.4224,-6353.74,-6345.4805,-6334.1035,-6346.1636,-6364.9844,-6397.479,-6432.839,-6450.313,-6481.0957,-6534.2656,-6562.515,-6558.213,-6544.0923,-6488.1157,-6405.4575,-6352.3477,-6348.393,-6351.424,-6312.617,-6291.5566,-6311.714,-6335.2407,-6355.1226,-6348.6465,-6341.3394,-6376.854,-6430.445,-6452.7954,-6435.1616,-6422.1836,-6452.065,-6531.1343,-6592.4136,-6559.5645,-6477.571,-6427.2354,-6420.625,-6417.7227,-6380.0435,-6338.8037,-6376.7876,-6443.6562,-6439.256,-6409.052,-6387.9937,-6380.524,-6384.0576,-6376.787,-6380.038,-6390.5386,-6410.1284,-6497.513,-6651.514,-6698.941,-6620.9087,-6606.3525,-6622.969,-6659.514,-6714.2427,-6641.236,-6556.074,-6552.147,-6504.8335,-6444.203,-6450.0386,-6448.6895,-6442.9097,-6503.0684,-6519.1885,-6481.3403,-6469.2476,-6434.6304,-6375.487,-6310.6523,-6265.612,-6256.1855,-6280.0513,-6332.044,-6372.19,-6406.7373,-6423.3247,-6421.6245,-6459.7197,-6530.2046,-6583.144,-6610.37,-6614.389,-6584.6323,-6554.731,-6521.691,-6459.2397,-6433.167,-6425.759,-6366.3203,-6331.488,-6347.2017,-6352.03,-6352.5635,-6371.922,-6429.369,-6466.178,-6459.9414,-6490.114,-6509.053,-6461.4463,-6380.1807,-6323.461,-6322.8774,-6335.4043,-6371.987,-6414.389,-6420.589,-6433.5547,-6471.5474,-6511.477,-6496.6353,-6463.7734,-6452.676,-6398.0137,-6382.4956,-6406.749,-6384.0234,-6386.585,-6386.8257,-6374.348,-6379.009,-6350.7217,-6328.594,-6321.9956,-6326.0703,-6347.3115,-6364.98,-6414.93,-6450.052,-6439.577,-6435.28,-6423.347,-6436.2607,-6477.4653,-6479.5747,-6470.73,-6467.7446,-6448.556,-6430.1445,-6412.059,-6394.488,-6384.778,-6367.4,-6355.0283,-6382.392,-6429.0205,-6450.6816,-6443.4277,-6430.5464,-6412.0654,-6384.9727,-6409.7607,-6489.7373,-6571.121,-6642.8706,-6652.128,-6607.037,-6572.0254,-6521.8467,-6469.2944,-6445.1616,-6412.9355,-6361.0825,-6320.999,-6324.5215,-6346.9604,-6354.86,-6355.0527,-6344.2104,-6342.7627,-6353.5654,-6355.296,-6368.8516,-6408.227,-6479.0073,-6540.3335,-6539.995,-6497.178,-6443.547,-6416.0605,-6394.908,-6373.058,-6397.178,-6426.3154,-6441.7026,-6443.536,-6428.415,-6430.94,-6445.1494,-6459.2456,-6466.1753,-6484.815,-6517.06,-6540.8813,-6543.4873,-6517.078,-6495.0693,-6479.069,-6485.387,-6492.719,-6446.3853,-6413.842,-6429.569,-6488.0776,-6595.5093,-6661.256,-6621.1016,-6538.3,-6465.9053,-6413.0703,-6393.0757,-6379.5815,-6341.585,-6323.6226,-6360.594,-6386.867,-6387.3823,-6395.9526,-6409.915,-6439.6997,-6443.305,-6424.327,-6423.2275,-6418.4707,-6424.4546,-6445.867,-6461.307,-6460.3438,-6474.5054,-6520.003,-6555.7676,-6575.32,-6567.247,-6538.3057,-6497.777,-6448.017,-6448.373,-6487.5444,-6526.9146,-6578.5474,-6587.635,-6540.4287,-6529.3257,-6547.947,-6535.284,-6521.202,-6550.716,-6578.5127,-6556.588,-6542.468,-6524.97,-6496.4194,-6478.723
-6399.243,-6347.63,-6360.0737,-6349.413,-6372.275,-6401.787,-6417.459,-6427.532,-6416.1206,-6439.8867,-6448.54,-6456.0044,-6510.2725,-6525.297,-6501.981,-6525.2495,-6612.9956,-6633.001,-6567.25,-6536.449,-6546.626,-6622.146,-6688.046,-6645.15,-6603.8438,-6609.337,-6560.147,-6473.576,-6475.368,-6513.659,-6509.238,-6506.09,-6511.709,-6489.781,-6434.1665,-6418.1455,-6434.2046,-6437.993,-6447.53,-6468.248,-6520.777,-6557.3457,-6549.5713,-6540.8086,-6534.2075,-6524.213,-6544.4497,-6587.5703,-6582.8564,-6551.6426,-6522.8633,-6540.1587,-6585.079,-6547.3667,-6539.5615,-6560.6655,-6508.4443,-6458.4336,-6405.542,-6433.9966,-6539.2656,-6531.5493,-6489.757,-6503.736,-6514.5586,-6535.6816,-6595.512,-6633.675,-6583.9297,-6530.339,-6501.7847,-6455.2705,-6447.1953,-6466.2705,-6488.4937,-6532.4355,-6571.2163,-6564.878,-6517.65,-6479.1855,-6450.772,-6439.908,-6457.371,-6533.28,-6697.985,-6826.992,-6860.16,-6836.134,-6758.9497,-6648.729,-6519.4087,-6425.1235,-6363.6924,-6341.9136,-6388.714,-6405.4604,-6407.8325,-6431.151,-6439.8247,-6447.1387,-6441.304,-6443.737,-6449.0977,-6464.5645,-6486.1904,-6484.3257,-6503.3965,-6506.333,-6498.213,-6511.334,-6516.2354,-6545.248,-6584.6963,-6611.921,-6639.427,-6660.0737,-6667.7417,-6639.274,-6569.708,-6519.0015,-6498.665,-6470.3467,-6469.6353,-6479.9336,-6497.4814,-6552.9365,-6561.982,-6574.4526,-6666.992,-6699.2656,-6610.736,-6533.292,-6551.7134,-6602.835,-6677.3145,-6745.6113,-6675.701,-6593.5825,-6620.1455,-6600.474,-6525.0435,-6472.8555,-6410.5933,-6369.2725,-6396.2183,-6420.4536,-6409.815,-6418.944,-6442.4,-6463.4497,-6511.678,-6565.338,-6563.368,-6560.408,-6613.071,-6648.1543,-6657.95,-6665.6772,-6642.2085,-6605.257,-6581.69,-6566.2725,-6549.7705,-6541.17,-6525.5015,-6513.808,-6533.434,-6531.3247,-6509.3926,-6505.381,-6497.054,-6470.3975,-6453.7666,-6474.776,-6513.1094,-6561.922,-6592.9316,-6617.076,-6696.847,-6747.7676,-6760.324,-6821.8027,-6817.6533,-6722.0503,-6652.601,-6583.771,-6521.2515,-6481.289,-6442.325,-6449.7583,-6461.3335,-6478.0444,-6527.0713,-6525.7886,-6521.1177,-6539.74,-6547.814,-6597.3184,-6624.1904,-6592.744,-6565.6284,-6533.95,-6511.8247,-6549.474,-6653.0737,-6745.5015,-6742.438,-6656.3716,-6567.799,-6531.4507,-6533.325,-6529.3325,-6516.7305,-6546.863,-6577.15,-6565.7427,-6551.2637,-6525.144,-6506.84,-6521.776,-6529.9736,-6488.9497,-6471.6626,-6519.8433,-6552.7153,-6559.3687,-6533.592,-6528.045,-6580.0054,-6618.8696,-6645.903,-6659.9893,-6664.612,-6650.5366,-6627.3413,-6623.969,-6562.45,-6495.9453,-6492.8066,-6467.721,-6451.523,-6476.268,-6494.6777,-6533.8535,-6580.815,-6574.4,-6551.7783,-6566.7974,-6559.5293,-6512.9717,-6518.98,-6557.933,-6571.0205,-6577.1553,-6574.5225,-6579.445,-6590.3657,-6578.0547,-6572.689,-6600.4717,-6619.8643,-6575.8716,-6530.829,-6547.1187,-6586.5723,-6629.7275,-6648.533,-6663.576,-6710.164,-6744.9346,-6730.764,-6669.3535,-6609.703,-6539.55,-6475.2207,-6483.986,-6496.4434,-6495.3237,-6500.602,-6496.3193,-6498.3657,-6481.6294,-6486.253,-6520.353,-6532.948,-6567.6367,-6627.9385,-6668.4336,-6673.581,-6642.906,-6598.537,-6593.127,-6603.9717,-6583.4175,-6598.172,-6629.577,-6646.3833,-6672.446,-6684.528,-6772.1724,-6851.4297,-6740.5054,-6613.506,-6555.157,-6465.313,-6416.077,-6422.3247,-6442.555,-6489.278,-6516.2544,-6543.7095,-6599.829,-6639.999,-6652.1113,-6664.9595,-6702.781,-6710.5317,-6708.741,-6707.3833,-6642.144,-6591.968,-6541.657,-6477.1787,-6475.04,-6481.046,-6492.322,-6515.694,-6531.971,-6556.3545,-6573.243,-6584.5737,-6607.91,-6651.1445,-6691.748,-6722.7188,-6738.022,-6729.5273,-6692.486,-6607.424,-6546.296,-6546.1865,-6559.348,-6579.907,-6603.8203,-6627.2896,-6653.9824,-6646.7773,-6595.1934,-6565.781,-6542.1045,-6510.091,-6520.3354,-6531.943,-6538.735,-6537.8394,-6522.181,-6537.818,-6551.3184,-6542.5806,-6539.4688,-6556.5464,-6568.944,-6576.879,-6627.4927,-6678.0137,-6738.7163,-6828.9297,-6848.234,-6816.924,-6783.3325,-6693.1772,-6592.8076,-6535.8096,-6479.8623,-6452.565,-6478.8604,-6515.8438,-6540.2783,-6547.4717,-6548.204,-6544.6626,-6559.4775,-6595.052,-6608.3174,-6603.373,-6592.9736,-6584.781,-6586.514,-6589.812,-6580.5747,-6567.332,-6597.6245,-6644.9956,-6652.5312,-6650.793,-6650.8286,-6631.1714,-6624.7104,-6655.3315,-6720.992,-6797.7305,-6815.1694,-6766.4004,-6705.8555,-6648.8823,-6597.622,-6570.308,-6554.659,-6550.798,-6582.828,-6609.853,-6638.42,-6688.1616,-6710.6343,-6696.7144,-6678.9556,-6659.011,-6578.211,-6528.44,-6541.025,-6489.9004,-6479.655,-6524.653,-6532.334,-6547.7812,-6569.62,-6594.674,-6608.118,-6624.3755,-6658.208,-6659.9985,-6662.8936,-6686.794,-6678.456,-6653.2437,-6667.2026,-6700.257,-6703.151,-6658.6113,-6598.1865,-6565.7925,-6546.9053,-6535.8423,-6548.2715,-6603.0703,-6660.2793,-6655.49,-6640.967,-6630.801,-6608.9424,-6597.5557,-6575.669,-6550.887,-6530.035,-6526.257,-6548.8267,-6565.9326,-6579.9385,-6597.173,-6620.086,-6647.747,-6681.7993,-6706.2593,-6694.3013,-6683.83,-6683.0864,-6663.2046,-6636.002,-6620.1377,-6605.814,-6590.6587,-6600.1094,-6612.9194,-6636.254,-6665.075,-6639.353,-6620.3916,-6619.493,-6597.868,-6605.427,-6618.1426,-6622.9863,-6632.2363,-6639.24,-6674.372,-6715.899,-6716.762,-6682.0005,-6650.226,-6609.318,-6572.1074,-6593.412,-6616.9526,-6627.06,-6684.906,-6756.623,-6782.3086,-6776.0605,-6773.91,-6757.6855,-6694.077,-6634.848,-6626.9375,-6611.169,-6592.8325,-6601.9517,-6605.7764,-6615.8345,-6643.465,-6706.2104,-6754.514,-6730.1147,-6707.895,-6691.1997,-6645.4854,-6604.4546,-6576.787,-6553.455,-6546.7173,-6577.9956,-6606.8364,-6610.9717,-6640.003,-6689.623,-6705.967,-6683.0654,-6665.691,-6652.965,-6646.641,-6651.9585,-6621.556,-6592.4946,-6599.528,-6640.3833,-6699.25,-6702.6157,-6721.3843,-6797.372,-6804.514,-6765.538,-6757.677,-6716.86,-6672.934,-6686.873,-6673.8525,-6645.136,-6631.9985,-6626.9883,-6656.312,-6665.948,-6651.7524,-6620.0356,-6589.934,-6600.782,-6595.65,-6585.5664,-6600.349,-6618.5254,-6630.8813,-6665.9893,-6721.008,-6707.4077,-6666.394,-6667.5366,-6676.474,-6675.421,-6667.5283,-6689.414,-6709.8174,-6682.364,-6667.237,-6682.722,-6676.902,-6649.721,-6637.6006,-6633.0933,-6632.68,-6638.184,-6638.926,-6637.3228,-6640.306,-6668.18,-6705.962,-6734.518,-6771.161,-6825.333,-6856.647,-6839.1255,-6817.4536,-6766.373,-6693.9707,-6655.963,-6645.3115,-6688.866,-6730.2607,-6749.6675,-6768.368,-6740.3716,-6761.263,-6792.408,-6724.297,-6658.713,-6637.864,-6659.537,-6715.51,-6775.906,-6803.256,-6751.1807,-6709.286,-6693.5723,-6644.0015,-6627.4487,-6637.516,-6636.845,-6643.9766,-6652.2964,-6668.965,-6682.534,-6681.721,-6682.256,-6693.1143,-6715.282,-6748.048,-6781.957,-6782.6626,-6761.184,-6745.217,-6735.2397,-6745.7573,-6786.7354,-6857.4805,-6893.377,-6848.993,-6791.6606,-6773.7,-6778.7676,-6767.591,-6756.654,-6789.2573,-6814.6855,-6769.224,-6710.424,-6683.162,-6647.58,-6623.4297,-6628.1245,-6637.421,-6639.4873,-6623.7583,-6620.12,-6641.7964,-6668.1304,-6692.67,-6717.17,-6742.714,-6776.5645,-6821.8403,-6828.5854,-6799.968,-6775.1865,-6728.7695,-6705.005,-6723.232,-6720.939,-6718.751,-6721.677,-6696.047,-6677.12,-6702.9307,-6731.52,-6715.8774,-6696.103,-6694.276,-6701.2617,-6728.842,-6769.767,-6807.3975,-6799.3755,-6759.189,-6735.199,-6704.4478,-6667.8843,-6650.528,-6660.415,-6671.3813,-6669.891,-6701.3467,-6736.02,-6744.067,-6754.966,-6762.3867,-6768.0737,-6755.465,-6730.7183,-6720.5117,-6708.391,-6721.5254,-6739.309,-6727.93,-6728.8696,-6722.397,-6711.7534,-6734.6987,-6753.8877,-6758.538,-6782.2705,-6816.1426,-6836.361,-6846.8984,-6833.422,-6819.803,-6839.1104,-6816.173,-6769.577,-6775.002,-6792.9854,-6805.119,-6778.5283,-6730.175,-6729.433,-6740.0103,-6738.5596,-6726.0923,-6731.188,-6760.318,-6749.9565,-6740.1763,-6755.042,-6754.0723,-6761.85,-6757.9814,-6738.029,-6740.0054,-6721.544,-6693.559,-6695.9014,-6717.1377,-6745.6875,-6753.231,-6771.703,-6811.051,-6819.3066,-6813.6724,-6834.05,-6834.2407,-6779.882,-6802.612,-6900.482,-6929.7134,-6959.734,-7032.5337,-7018.1934,-6924.7393,-6865.2666,-6788.805,-6717.5317,-6708.9355,-6641.439,-6604.3765,-6660.9644,-6694.271,-6694.9463,-6671.883,-6710.334,-6758.879,-6738.6777,-6753.6064,-6770.2007,-6747.8037,-6705.58,-6663.756,-6664.5337,-6703.614,-6749.0967,-6770.37,-6799.068,-6820.372,-6817.802,-6818.49,-6825.0347,-6848.996,-6820.3306,-6767.189,-6758.0195,-6732.463,-6706.5117,-6688.1406,-6675.9365,-6682.1,-6682.032,-6689.5103,-6694.5,-6704.139,-6718.9746,-6724.0815,-6738.696,-6755.252,-6778.8394,-6804.3657,-6824.978,-6847.8716,-6866.8833,-6868.5156,-6847.584,-6849.451,-6846.28,-6835.735,-6897.269,-6932.3657,-6863.6094,-6794.7437,-6780.4155,-6776.029,-6764.0225,-6776.007,-6801.445,-6817.385,-6785.515,-6744.8154,-6766.975,-6757.3887,-6730.975,-6766.727,-6806.1226,-6837.6978,-6847.8867,-6822.071,-6792.726,-6748.1133,-6693.443,-6677.6997,-6681.434,-6687.3804,-6705.971,-6711.794,-6736.673,-6764.783,-6768.018,-6781.8843,-6792.712,-6795.8823,-6780.084,-6766.2065,-6765.5327,-6747.8994,-6738.716,-6736.608,-6747.6113,-6763.4824,-6764.5664,-6779.7773,-6799.032,-6807.901,-6810.6465,-6819.681,-6841.5786,-6872.8926,-6897.3374,-6883.8257,-6857.058,-6856.8096,-6894.546,-6913.192,-6870.9604,-6846.869,-6825.135,-6770.8257,-6758.139,-6768.89,-6786.046,-6803.303,-6777.66,-6763.5127,-6754.2275,-6729.2417,-6732.913,-6725.0957,-6719.9067,-6743.007,-6747.9165,-6751.6353,-6766.0605,-6776.4546,-6778.073,-6763.033,-6756.4395,-6767.0767,-6787.2153,-6824.3745,-6862.303,-6882.81,-6889.4785,-6912.221,-6960.287,-7003.463,-7024.863,-7010.5767,-6944.5547,-6848.4917,-6805.3286,-6792.7437,-6727.253,-6677.5347,-6673.321,-6695.649,-6732.349,-6742.7188,-6758.989,-6766.1357,-6759.918,-6772.2812,-6773.4634,-6780.162,-6807.431,-6842.9873,-6853.202,-6820.028,-6801.6553,-6843.681,-6940.8013,-7020.123,-7021.475,-7005.999,-7012.92,-6955.151,-6847.4995,-6782.127,-6740.4673,-6724.927,-6719.328,-6705.3906,-6715.3345,-6736.498,-6742.0474,-6726.4805,-6738.3823,-6745.875,-6739.485,-6760.1597,-6749.909,-6748.6016,-6760.231,-6768.6567,-6805.996,-6818.9404,-6823.094,-6817.708,-6818.757,-6848.3447,-6845.171,-6852.9053,-6881.934,-6883.1123,-6879.582,-6874.3457,-6852.5444,-6839.3447,-6853.1724,-6861.709,-6846.357,-6834.8286,-6863.0522,-6892.5127,-6868.3877,-6832.703,-6814.048,-6792.2344,-6770.7505,-6773.744,-6775.2964,-6767.036,-6786.399,-6792.4355,-6788.28,-6792.5522,-6779.0625,-6768.673,-6760.336,-6764.51,-6778.175,-6782.0483,-6794.1387,-6818.035,-6853.55,-6890.3374,-6913.982,-6913.519,-6902.612,-6887.342,-6860.253,-6845.843,-6836.0527,-6837.7373,-6843.8716,-6824.8345,-6830.0605,-6869.97,-6881.081,-6837.4536,-6806.9204,-6815.558,-6811.5767,-6827.6646,-6857.8574,-6860.362,-6861.427,-6858.1143,-6855.36,-6869.3413,-6867.43,-6834.821,-6825.729,-6838.245,-6835.3384,-6840.0444,-6847.912,-6858.338,-6846.56,-6805.0176,-6795.142,-6805.6777,-6815.4463,-6833.1885,-6850.255,-6848.8804,-6847.971,-6867.6187,-6862.9595,-6851.359,-6858.1235,-6851.724,-6846.987,-6862.1377,-6887.7397,-6897.3843,-6868.374,-6835.3486,-6834.5103,-6831.003,-6808.969,-6788.7783,-6763.5884,-6761.045,-6784.101,-6792.755,-6801.495,-6818.0625,-6841.781,-6870.042,-6876.9653,-6874.532,-6872.483,-6862.143,-6851.365,-6840.5146,-6837.546,-6852.323,-6861.857,-6854.667,-6852.2705,-6859.689,-6868.518,-6868.015,-6858.149,-6847.977,-6834.609,-6837.94,-6853.776,-6866.9814,-6894.5977,-6930.91,-6969.2725,-6965.5483,-6916.474,-6878.6787,-6833.232,-6804.106,-6801.3486,-6792.8623,-6809.1,-6830.4985,-6843.4272,-6863.9233,-6877.1685,-6872.966,-6862.5664,-6864.475,-6870.1377,-6876.481,-6876.6465,-6874.083,-6863.0737,-6849.545,-6869.688,-6869.3467,-6854.5645,-6861.169,-6847.9272,-6834.905,-6826.643,-6813.5947,-6782.356,-6753.44,-6777.38,-6811.2505,-6828.5293,-6818.2017,-6806.1235,-6816.118,-6813.156,-6819.3936,-6818.044,-6809.668,-6811.7485,-6798.6416,-6796.4966,-6800.5923,-6804.568,-6797.11,-6768.2446,-6761.04,-6767.9277,-6776.7676,-6789.2744,-6789.305,-6786.4106,-6814.016,-6858.137,-6866.0957,-6848.4814,-6802.64,-6750.0894,-6746.5903,-6751.1255,-6756.658,-6765.612,-6763.7026,-6770.6787,-6747.358,-6728.7603,-6757.347,-6742.1533,-6676.1797,-6630.9727,-6588.1206,-6558.485,-6576.954,-6583.0283,-6591.184,-6606.4316,-6603.677,-6631.9307,-6639.6943,-6638.8228,-6646.836,-6633.4946,-6665.216,-6689.2817,-6679.0884,-6670.468,-6656.991,-6661.056,-6657.671,-6660.752,-6682.9287,-6697.9814,-6709.275,-6710.2896,-6699.884,-6693.8594,-6695.672,-6671.689,-6665.5386,-6689.9624,-6659.833,-6617.847,-6581.2344,-6524.933,-6503.2407,-6503.308,-6530.371,-6580.3457,-6582.8896,-6571.034,-6573.868,-6562.153,-6545.9976,-6534.508,-6533.329,-6531.243,-6524.3438,-6537.417,-6557.158,-6568.909,-6578.515,-6590.6836,-6613.5806,-6634.674,-6647.663,-6654.629
-6659.913,-6674.744,-6676.0815,-6665.7393,-6672.3843,-6687.4224,-6712.4014,-6748.9907,-6759.9565,-6722.224,-6664.2617,-6615.7124,-6594.085,-6595.6265,-6610.2397,-6673.93,-6751.311,-6795.1646,-6820.475,-6802.8447,-6779.13,-6766.159,-6728.014,-6691.171,-6665.325,-6662.306,-6672.4604,-6674.0947,-6666.602,-6645.7803,-6656.943,-6696.355,-6715.266,-6748.3184,-6789.333,-6782.971,-6789.997,-6810.766,-6786.3223,-6774.446,-6757.1104,-6718.0986,-6711.4126,-6719.7876,-6741.7886,-6776.5674,-6816.1177,-6858.421,-6866.572,-6818.7407,-6760.3525,-6728.6587,-6690.3076,-6680.0967,-6703.7676,-6704.174,-6713.8364,-6729.28,-6741.3047,-6766.994,-6785.7856,-6789.7417,-6789.12,-6812.53,-6836.3267,-6839.2593,-6852.382,-6883.4707,-6921.874,-6928.168,-6907.9897,-6884.228,-6865.9863,-6880.495,-6856.814,-6815.1323,-6839.3413,-6865.0913,-6912.243,-6982.7354,-7007.651,-6984.5337,-6906.69,-6866.967,-6863.1514,-6823.55,-6855.8267,-6927.6396,-6933.3047,-6919.4277,-6892.1514,-6846.4263,-6826.852,-6831.327,-6834.2993,-6851.4043,-6911.481,-6976.0947,-6971.4263,-6933.686,-6928.8716,-6904.209,-6846.22,-6813.9614,-6806.0493,-6808.3247,-6823.0786,-6833.4155,-6829.606,-6841.5674,-6875.1577,-6910.7837,-6942.235,-6951.5933,-6949.4897,-6944.985,-6928.7837,-6901.0044,-6869.84,-6851.3496,-6834.0156,-6833.0996,-6849.0996,-6865.89,-6904.7163,-6934.5312,-6954.227,-6951.3936,-6891.781,-6853.022,-6866.6685,-6901.0034,-6907.5645,-6881.24,-6895.4404,-6909.0225,-6894.6553,-6897.88,-6901.5103,-6903.6484,-6912.288,-6932.2466,-6982.0107,-7064.965,-7118.585,-7082.7515,-7027.779,-6991.1963,-6938.274,-6930.764,-6976.4185,-6975.7466,-6952.714,-6955.8022,-6963.711,-6979.6665,-6983.357,-7001.37,-7011.9053,-6955.9995,-6930.3613,-6910.928,-6853.4673,-6837.7266,-6828.8486,-6838.082,-6875.5625,-6887.793,-6903.356,-6939.5312,-6984.3926,-6991.9604,-6952.4087,-6910.4854,-6889.7446,-6900.2207,-6891.0063,-6863.614,-6867.676,-6886.366,-6908.1587,-6923.4365,-6943.7466,-6986.086,-7010.63,-6990.755,-6964.1914,-6958.928,-6945.9976,-6937.2573,-6938.998,-6932.875,-6948.7837,-6951.2886,-6932.7793,-6958.9907,-6991.122,-6990.934,-6999.4136,-7011.7046,-7012.737,-7034.668,-7049.1724,-7043.1504,-7075.5815,-7080.2964,-7003.177,-6951.12,-6927.051,-6892.455,-6904.0356,-6910.674,-6900.394,-6911.9897,-6904.504,-6932.3643,-6967.2993,-6963.56,-6969.76,-6949.3853,-6933.9834,-6938.7324,-6940.095,-6937.0845,-6915.2075,-6923.741,-6921.6304,-6905.74,-6918.9297,-6914.6157,-6917.5244,-6928.568,-6956.2134,-7003.978,-7015.659,-7012.509,-7005.5933,-6998.1694,-6992.7227,-6998.056,-7041.281,-7073.6523,-7071.9214,-7052.3066,-7025.994,-7012.647,-6998.409,-6982.678,-6991.9985,-7015.2305,-7016.3857,-6993.921,-6973.7715,-6958.409,-6920.5234,-6893.7817,-6908.2886,-6913.5947,-6917.463,-6931.319,-6944.1997,-6953.5757,-6940.5854,-6940.798,-6937.522,-6914.9556,-6921.026,-6938.638,-6960.5073,-6978.4707,-7000.4766,-7056.398,-7087.99,-7076.237,-7068.4478,-7075.8643,-7075.35,-7055.2803,-7031.93,-6993.4736,-6950.642,-6949.558,-6988.765,-7025.6865,-7033.471,-7030.213,-7015.231,-6987.821,-6977.3916,-6965.8164,-6960.183,-6985.084,-6999.099,-6989.3955,-6973.149,-6967.831,-6973.631,-6969.5376,-6970.0356,-6990.5386,-7026.9976,-7050.6113,-7072.404,-7097.0493,-7067.2153,-7028.8184,-7017.2153,-7012.408,-7025.1826,-7040.261,-7064.6187,-7077.084,-7089.745,-7100.336,-7056.9707,-7024.205,-6977.3877,-6918.178,-6924.1426,-6934.9717,-6955.7583,-6975.651,-6974.3096,-6979.8735,-6970.477,-6973.819,-6963.0425,-6943.918,-6958.987,-6959.402,-6963.1636,-6986.1367,-6998.7236,-7004.5635,-7019.542,-7025.9033,-7008.8486,-7001.3335,-6997.656,-6999.279,-7023.5654,-7062.903,-7099.13,-7103.674,-7107.2754,-7120.2617,-7125.378,-7143.0767,-7161.3027,-7164.8765,-7145.676,-7116.937,-7092.5015,-7046.5713,-6999.904,-6978.981,-6985.4824,-7006.606,-7027.474,-7047.1807,-7023.629,-6970.8257,-6933.648,-6931.025,-6949.761,-6937.891,-6931.6333,-6939.397,-6951.6147,-6972.7246,-6975.9014,-6989.9844,-6995.031,-6997.0537,-7014.779,-7027.6025,-7056.475,-7081.23,-7100.138,-7104.828,-7078.5767,-7062.175,-7084.414,-7124.28,-7121.083,-7088.1606,-7058.3223,-7035.298,-7038.21,-7027.249,-7000.976,-7001.22,-7027.304,-7065.9976,-7073.7856,-7048.8916,-7028.6514,-7019.616,-7009.0493,-6990.319,-6975.9287,-6960.2437,-6966.491,-6992.645,-7014.694,-7055.699,-7064.5625,-7041.4805,-7030.5063,-7001.4297,-6985.6177,-6993.687,-7006.4707,-7027.8096,-7034.6865,-7038.7944,-7050.205,-7062.8564,-7073.7236,-7068.328,-7060.4985,-7053.9136,-7048.841,-7067.3145,-7089.7363,-7114.7827,-7154.216,-7145.741,-7100.2676,-7085.995,-7054.122,-7003.4067,-7016.0557,-7062.3726,-7095.333,-7127.3306,-7146.009,-7139.5337,-7121.707,-7108.527,-7091.7817,-7064.59,-7044.4204,-7031.615,-7016.7886,-7003.588,-7011.058,-7028.4355,-7029.67,-7035.769,-7039.618,-7048.7363,-7094.736,-7115.545,-7111.266,-7133.7295,-7132.9653,-7116.6953,-7119.6562,-7107.194,-7087.3643,-7071.9536,-7049.229,-7025.3486,-7016.75,-7022.563,-7020.8013,-7040.2764,-7101.2114,-7159.071,-7164.438,-7135.2275,-7128.818,-7101.3706,-7048.7515,-7027.7314,-7017.8574,-7027.83,-7038.894,-7034.4326,-7049.594,-7060.4517,-7065.637,-7085.5835,-7105.0835,-7110.1035,-7098.3774,-7079.929,-7077.205,-7094.0894,-7101.83,-7095.5713,-7091.953,-7088.4497,-7074.7544,-7072.5967,-7082.898,-7082.648,-7090.2104,-7096.739,-7110.473,-7127.0254,-7113.086,-7126.861,-7165.7476,-7165.863,-7152.9067,-7155.8423,-7126.2397,-7072.188,-7073.6123,-7079.954,-7059.115,-7071.8037,-7090.676,-7095.0576,-7097.7466,-7099.5625,-7107.8345,-7110.5664,-7108.408,-7095.3647,-7067.6055,-7049.429,-7035.4785,-7023.2793,-7017.5425,-7013.462,-7026.8477,-7045.826,-7058.784,-7085.974,-7110.738,-7122.0444,-7154.677,-7195.5244,-7190.533,-7158.3403,-7148.0806,-7139.8706,-7107.9043,-7086.343,-7107.8516,-7123.2036,-7099.538,-7097.317,-7104.0874,-7099.116,-7107.371,-7091.061,-7075.129,-7076.612,-7071.6377,-7082.41,-7094.1465,-7099.4272,-7092.6807,-7089.228,-7101.0576,-7101.1567,-7122.661,-7150.732,-7151.8467,-7143.717,-7134.484,-7128.2153,-7105.773,-7096.4985,-7105.935,-7100.8716,-7114.0996,-7161.6855,-7222.677,-7227.725,-7174.4663,-7143.0435,-7109.1606,-7063.9077,-7047.4033,-7045.2573,-7053.9785,-7070.618,-7078.0317,-7094.2397,-7120.202,-7137.1143,-7173.8354,-7218.749,-7219.959,-7191.655,-7168.214,-7147.7915,-7118.1895,-7107.188,-7118.551,-7125.6455,-7138.5596,-7137.513,-7127.448,-7126.8145,-7115.3413,-7119.3774,-7126.7065,-7129.4893,-7172.0444,-7208.092,-7189.787,-7156.945,-7141.864,-7127.8647,-7117.875,-7113.5063,-7104.887,-7124.3735,-7137.238,-7129.378,-7148.148,-7171.5767,-7207.4604,-7233.2295,-7225.047,-7239.8315,-7251.4556,-7233.087,-7216.219,-7203.279,-7168.6865,-7118.5054,-7139.4395,-7215.5557,-7226.9146,-7198.6,-7209.0576,-7225.197,-7197.4004,-7149.964,-7127.532,-7103.2603,-7070.6265,-7073.0283,-7056.0425,-7028.219,-7037.048,-7027.3193,-7034.868,-7053.543,-7053.435,-7072.905,-7077.3413,-7084.706,-7096.6606,-7104.446,-7126.321,-7133.683,-7152.2856,-7178.033,-7202.7983,-7224.685,-7219.9287,-7224.8003,-7233.993,-7235.928,-7250.117,-7256.18,-7266.0454,-7299.9526,-7275.884,-7193.376,-7171.569,-7157.718,-7093.8687,-7060.741,-7060.442,-7064.2637,-7069.881,-7071.4453,-7080.1733,-7088.5967,-7088.5215,-7093.3345,-7102.2485,-7105.2085,-7108.52,-7117.608,-7125.3784,-7139.3965,-7165.679,-7182.0454,-7180.339,-7175.2393,-7170.71,-7168.954,-7183.1875,-7218.008,-7263.0645,-7300.271,-7310.185,-7302.0767,-7288.5786,-7268.192,-7242.451,-7194.596,-7140.3027,-7106.365,-7089.448,-7096.2783,-7108.0156,-7119.731,-7131.054,-7135.378,-7150.038,-7141.385,-7132.6147,-7146.6904,-7128.773,-7116.767,-7125.22,-7140.246,-7166.1953,-7173.074,-7202.4253,-7229.4277,-7220.5317,-7238.1772,-7258.8984,-7292.4185,-7343.464,-7370.3823,-7401.796,-7373.431,-7282.523,-7232.0825,-7165.5894,-7068.3555,-7029.1523,-7036.8525,-7056.5034,-7081.2925,-7105.633,-7123.4595,-7128.381,-7133.671,-7129.9854,-7119.5947,-7119.896,-7114.4604,-7119.9834,-7146.0566,-7165.5625,-7180.318,-7198.222,-7217.1523,-7240.6177,-7256.4795,-7264.3696,-7292.6646,-7307.9395,-7300.327,-7310.251,-7304.5933,-7307.1753,-7322.5166,-7272.8267,-7213.272,-7189.452,-7181.9673,-7207.672,-7211.653,-7174.3423,-7165.68,-7186.6724,-7213.6504,-7242.825,-7263.3105,-7266.388,-7225.23,-7162.5864,-7129.7847,-7122.296,-7126.484,-7136.93,-7150.893,-7162.755,-7171.9316,-7174.826,-7182.2363,-7203.979,-7208.2607,-7204.478,-7197.6055,-7189.1855,-7207.2925,-7244.2197,-7285.9087,-7293.38,-7285.4526,-7302.5107,-7302.276,-7287.549,-7269.2764,-7231.557,-7208.734,-7204.0195,-7191.6533,-7194.887,-7208.4595,-7212.255,-7202.054,-7173.158,-7167.505,-7194.154,-7233.0786,-7268.7603,-7273.7324,-7248.327,-7215.6797,-7197.044,-7184.1685,-7193.869,-7205.3696,-7198.659,-7216.9907,-7235.1123,-7249.9517,-7251.228,-7243.673,-7259.6553,-7242.416,-7225.0127,-7242.8135,-7248.2134,-7242.0996,-7239.9634,-7245.514,-7242.798,-7230.2856,-7226.7754,-7230.606,-7217.0386,-7191.1143,-7180.995,-7191.892,-7211.2,-7227.438,-7280.8003,-7324.412,-7304.635,-7311.246,-7295.722,-7224.563,-7211.105,-7212.63,-7182.3716,-7160.5723,-7163.3564,-7208.2188,-7256.3813,-7292.6855,-7315.886,-7294.885,-7261.0957,-7232.4204,-7220.356,-7218.4805,-7204.794,-7206.9717,-7205.4907,-7199.525,-7201.963,-7192.791,-7203.9604,-7225.363,-7229.293,-7230.1724,-7233.4053,-7257.918,-7286.0176,-7279.9424,-7281.2314,-7321.0796,-7347.2837,-7342.641,-7327.665,-7302.0137,-7274.595,-7251.793,-7244.0923,-7242.9956,-7250.9434,-7280.0786,-7262.4824,-7209.8916,-7194.5513,-7183.5005,-7167.261,-7161.461,-7166.065,-7172.6875,-7167.503,-7200.8726,-7254.547,-7277.337,-7302.218,-7323.4644,-7339.89,-7354.1465,-7332.9014,-7293.4497,-7257.8364,-7237.979,-7260.008,-7305.7275,-7336.57,-7340.7246,-7324.7944,-7316.2124,-7308.555,-7286.1006,-7251.1313,-7198.809,-7178.287,-7178.939,-7157.401,-7152.2163,-7165.3975,-7180.799,-7200.942,-7235.944,-7269.73,-7276.27,-7285.8257,-7309.166,-7322.5894,-7315.076,-7317.5347,-7337.537,-7339.1104,-7343.4146,-7355.6226,-7348.358,-7336.9897,-7325.669,-7308.256,-7289.124,-7258.3804,-7229.1353,-7223.916,-7224.841,-7224.4634,-7224.131,-7213.5796,-7229.6772,-7265.4307,-7275.378,-7292.5776,-7281.403,-7223.2754,-7201.688,-7185.587,-7184.0156,-7241.708,-7280.9946,-7307.299,-7339.409,-7343.906,-7346.1816,-7326.5674,-7273.1113,-7245.9893,-7239.4834,-7234.9316,-7255.7974,-7269.555,-7268.5464,-7264.822,-7249.834,-7256.294,-7255.0225,-7234.3237,-7238.6875,-7269.4727,-7310.147,-7302.076,-7280.4775,-7295.117,-7286.8696,-7276.173,-7262.5513,-7263.32,-7309.855,-7315.587,-7334.103,-7390.326,-7411.235,-7415.11,-7365.675,-7311.4595,-7296.121,-7255.164,-7208.8154,-7176.488,-7174.66,-7179.5337,-7177.3037,-7209.369,-7237.136,-7267.043,-7297.2075,-7295.0713,-7320.651,-7386.436,-7463.2114,-7504.146,-7470.672,-7425.1763,-7365.06,-7274.8657,-7256.203,-7283.7188,-7270.3013,-7251.634,-7236.792,-7225.1396,-7230.679,-7248.554,-7280.028,-7283.487,-7267.668,-7264.026,-7237.6035,-7195.946,-7179.109,-7184.992,-7193.079,-7204.4336,-7211.987,-7230.6675,-7273.198,-7300.876,-7330.1045,-7374.455,-7406.2393,-7424.0796,-7448.5806,-7472.7227,-7437.6636,-7365.9688,-7326.072,-7311.028,-7275.3,-7237.862,-7242.8545,-7226.0005,-7204.108,-7232.7734,-7257.773,-7281.0176,-7290.2754,-7277.2666,-7264.0527,-7246.5825,-7261.859,-7282.0254,-7297.179,-7351.799,-7410.669,-7444.624,-7463.841,-7461.06,-7421.867,-7423.632,-7457.3765,-7413.52,-7363.0767,-7323.3076,-7290.3076,-7322.6465,-7343.0786,-7332.532,-7313.234,-7300.1465,-7284.8164,-7252.0034,-7266.96,-7298.5483,-7319.3726,-7342.68,-7399.9214,-7512.917,-7595.3857,-7663.0786,-7724.516,-7746.8203,-7724.752,-7579.8374,-7413.222,-7333.715,-7293.383,-7308.349,-7294.03,-7269.355,-7320.437,-7299.1665,-7236.294,-7214.019,-7218.225,-7264.5947,-7249.37,-7206.5347,-7208.426,-7205.4097,-7204.177,-7238.0107,-7355.7153,-7483.022,-7566.28,-7663.898,-7679.992,-7594.703,-7501.0557,-7382.5024,-7286.5864,-7243.037,-7200.6455,-7178.0425,-7175.588,-7181.728,-7182.8984,-7171.2666,-7167.773,-7154.623,-7149.099,-7158.3467,-7171.6924,-7193.3584,-7206.842,-7247.553,-7304.2686,-7349.007,-7416.1553,-7504.452,-7550.8633,-7510.6855,-7469.8804,-7434.971,-7359.9023,-7304.5312,-7258.5605,-7277.8936,-7335.0464,-7276.5225,-7234.1953,-7250.652,-7183.197,-7108.679,-7104.0054,-7137.0547,-7192.299,-7270.589,-7345.851,-7366.9194,-7363.1255,-7358.029,-7334.8276,-7307.4263,-7273.6323,-7254.664,-7290.818,-7354.0723,-7349.111,-7278.93,-7246.3955,-7219.22,-7171.545,-7171.0845,-7167.884,-7145.7715,-7167.53,-7186.024,-7198.0127,-7220.9624,-7199.499,-7206.008,-7271.91,-7326.6787,-7372.393,-7385.6187,-7396.1113,-7416.651,-7362.2715,-7275.062,-7236.2324,-7236.1724,-7230.0503,-7197.6123,-7201.6006,-7273.8257,-7347.355,-7395.0303,-7399.431
-7333.868,-7260.4297,-7218.7964,-7199.5923,-7199.7983,-7228.525,-7257.4033,-7225.3633,-7227.291,-7315.1206,-7384.094,-7435.4443,-7510.4146,-7504.4473,-7315.0703,-7147.662,-7137.798,-7119.833,-7118.2754,-7214.8496,-7364.3257,-7469.7036,-7423.8945,-7348.1665,-7312.9824,-7248.6763,-7241.484,-7272.9253,-7250.833,-7278.196,-7368.633,-7392.2676,-7357.788,-7284.4927,-7140.745,-7044.877,-7063.029,-7091.4863,-7078.6216,-7083.065,-7125.0913,-7126.102,-7133.788,-7177.7905,-7180.341,-7185.5337,-7204.585,-7228.426,-7235.574,-7202.0396,-7166.4854,-7111.577,-7087.744,-7138.9814,-7217.5444,-7252.578,-7236.852,-7263.678,-7321.7446,-7370.386,-7419.1064,-7439.4253,-7406.2944,-7390.354,-7440.612,-7485.5684,-7482.581,-7389.3105,-7234.2666,-7077.919,-6980.2554,-6988.7476,-6964.459,-6936.7104,-6988.8496,-7028.5273,-7077.722,-7156.9346,-7181.9453,-7129.3555,-7153.7705,-7206.2324,-7183.99,-7276.132,-7353.053,-7305.9067,-7295.3228,-7251.4214,-7156.62,-7069.459,-7001.838,-6941.6914,-6887.366,-6907.8086,-6965.6343,-7031.5386,-7080.238,-7069.4707,-7065.9277,-7084.515,-7096.6978,-7099.7817,-7129.409,-7244.695,-7416.562,-7565.107,-7678.331,-7702.5894,-7535.6084,-7293.477,-7058.816,-6858.6753,-6825.77,-6874.941,-6985.678,-7148.53,-7240.7773,-7325.267,-7291.824,-7142.978,-7083.9087,-6976.496,-6798.688,-6736.6133,-6751.213,-6790.1387,-6859.6646,-6926.551,-7014.725,-7096.909,-7118.5117,-7099.1826,-7072.971,-7077.9834,-7070.26,-7064.843,-7162.53,-7267.1167,-7248.4624,-7138.2285,-7005.063,-6896.399,-6767.8926,-6645.474,-6662.1484,-6711.0806,-6726.2085,-6774.833,-6817.0327,-6883.0195,-6950.9487,-7001.601,-7063.713,-7151.417,-7286.905,-7325.89,-7242.965,-7116.5913,-6957.0674,-6860.1533,-6844.347,-6865.8174,-6890.882,-6892.228,-6876.9795,-6837.5547,-6828.5513,-6920.147,-7065.629,-7132.1235,-7068.5737,-6956.285,-6823.31,-6734.4814,-6772.211,-6793.7085,-6795.3003,-6854.9717,-6852.3896,-6850.097,-6851.664,-6778.817,-6776.3853,-6803.737,-6762.6074,-6722.7515,-6723.63,-6771.7686,-6833.641,-6889.7617,-6913.141,-6882.9053,-6862.904,-6886.466,-6933.4556,-6963.8984,-6960.6304,-6936.4004,-6904.2637,-6895.7427,-6866.8877,-6800.3184,-6751.061,-6713.694,-6733.2495,-6784.9463,-6770.292,-6739.6885,-6747.0747,-6754.8506,-6733.2324,-6744.007,-6808.5854,-6876.3813,-6926.56,-6931.1787,-6920.1143,-6888.3247,-6844.3853,-6854.652,-6882.148,-6900.077,-6895.9346,-6875.9204,-6831.901,-6755.5503,-6735.652,-6749.3755,-6768.968,-6830.8994,-6873.628,-6876.766,-6866.837,-6842.1704,-6832.923,-6863.0957,-6893.5205,-6912.3276,-6918.5576,-6879.4062,-6853.276,-6869.0825,-6863.6235,-6861.7246,-6883.1626,-6874.416,-6822.377,-6761.9287,-6746.768,-6768.226,-6785.262,-6821.0083,-6895.038,-6984.5796,-7055.3306,-7110.511,-7129.5205,-7072.471,-6995.7637,-6933.5186,-6861.733,-6798.453,-6774.538,-6811.7666,-6929.643,-7050.1416,-7074.343,-7060.8613,-6998.7485,-6860.256,-6791.6416,-6775.01,-6760.4683,-6791.7456,-6798.4854,-6826.2397,-6872.684,-6855.286,-6836.6157,-6820.4307,-6832.0073,-6859.76,-6870.5537,-6888.0103,-6874.7275,-6897.4907,-6946.005,-6985.077,-7088.4014,-7181.7334,-7193.02,-7125.4336,-7024.5464,-6944.746,-6881.4175,-6879.664,-6925.9688,-6942.8135,-6951.822,-6968.815,-6935.502,-6895.8438,-6934.397,-6961.0063,-6948.369,-6938.034,-6874.0444,-6837.695,-6858.811,-6834.839,-6805.361,-6829.2407,-6933.8315,-7105.8755,-7233.1465,-7237.759,-7208.178,-7204.081,-7090.9077,-6926.0903,-6867.2085,-6833.4224,-6815.636,-6874.5967,-6936.02,-6942.649,-6946.4185,-6976.626,-6991.401,-7025.6084,-7078.094,-7068.55,-7031.575,-6997.817,-6914.741,-6799.192,-6754.2896,-6774.5024,-6778.1084,-6794.047,-6825.9473,-6860.806,-6929.602,-7014.1978,-7080.2646,-7084.8115,-7061.904,-7045.884,-6969.9907,-6885.309,-6870.333,-6886.219,-6897.776,-6869.4854,-6832.411,-6830.675,-6832.1846,-6853.676,-6916.8857,-7019.541,-7079.743,-7069.1104,-7080.2295,-7036.3604,-6967.4155,-7007.725,-7105.2476,-7161.0825,-7119.474,-7091.2754,-7053.427,-6942.005,-6882.6597,-6800.405,-6708.7456,-6708.2007,-6732.981,-6775.4653,-6806.615,-6822.081,-6855.0107,-6887.531,-6890.296,-6861.5034,-6858.0317,-6851.009,-6810.7754,-6789.392,-6784.8887,-6795.9956,-6821.3423,-6854.075,-6929.9824,-7070.722,-7229.987,-7308.6387,-7298.4355,-7241.204,-7168.595,-7162.444,-7174.7827,-7096.458,-6965.819,-6877.213,-6848.0825,-6825.857,-6820.54,-6849.4785,-6867.8145,-6847.8013,-6826.211,-6854.2393,-6927.719,-7001.6016,-7046.6787,-7125.6934,-7165.5635,-7036.8486,-6879.019,-6809.485,-6761.4043,-6696.6553,-6714.724,-6787.328,-6818.7715,-6863.074,-6876.876,-6892.581,-6946.8657,-6957.0894,-6904.6074,-6804.987,-6782.38,-6816.184,-6844.724,-6926.382,-7017.3594,-7090.484,-7098.875,-7047.7856,-7000.8154,-6932.2295,-6876.3794,-6865.846,-6848.1304,-6847.7188,-6899.0645,-6958.806,-7006.7686,-6991.9585,-6946.66,-6899.551,-6807.513,-6778.5576,-6787.5303,-6758.9033,-6731.0854,-6737.292,-6805.759,-6855.9624,-6896.464,-6947.1045,-7028.116,-7178.1196,-7251.4595,-7215.4854,-7118.0186,-7007.894,-6926.021,-6840.1104,-6777.22,-6712.649,-6676.216,-6702.6626,-6727.7007,-6756.2017,-6779.127,-6817.8228,-6910.781,-7007.7974,-7063.5874,-7072.8247,-7060.0674,-7064.1123,-7048.9697,-6950.6094,-6868.66,-6861.8755,-6846.5083,-6832.77,-6814.576,-6799.803,-6818.338,-6813.4175,-6816.1045,-6826.7764,-6820.22,-6835.012,-6845.425,-6870.7046,-6895.078,-6891.252,-6927.1694,-6950.5044,-6928.638,-6944.9688,-6970.122,-6982.29,-7063.7534,-7157.986,-7144.424,-7053.209,-6969.6987,-6967.2354,-6987.0527,-6919.639,-6839.038,-6802.1406,-6791.7534,-6802.5913,-6801.4873,-6800.355,-6812.578,-6821.311,-6827.2153,-6834.065,-6847.1753,-6864.8813,-6891.605,-6935.8115,-6982.452,-7064.017,-7218.747,-7345.4873,-7408.058,-7497.9937,-7554.137,-7447.8325,-7207.622,-6987.1587,-6822.2446,-6684.2065,-6663.956,-6692.2554,-6699.6836,-6759.6553,-6806.323,-6827.872,-6858.3394,-6865.0645,-6851.089,-6838.143,-6835.699,-6821.1787,-6868.507,-7014.5864,-7090.5913,-7055.6353,-7046.3467,-7015.6353,-6941.9946,-6927.834,-6905.975,-6912.885,-6970.1597,-6974.953,-6975.7104,-6972.612,-6957.1733,-6930.0146,-6890.147,-6875.628,-6846.8267,-6817.4585,-6819.616,-6816.3745,-6805.2397,-6854.08,-6943.5093,-7022.542,-7068.603,-7024.71,-7010.474,-7034.4014,-7017.632,-7029.9326,-7015.6616,-7018.5537,-7076.187,-7101.17,-7073.7324,-6985.419,-6895.005,-6793.6665,-6724.528,-6711.026,-6675.9067,-6705.949,-6775.338,-6830.358,-6915.8906,-7010.4956,-7111.3833,-7167.4614,-7153.6255,-7139.6772,-7138.129,-7104.9087,-7064.4624,-7014.9663,-6914.4316,-6849.889,-6860.6895,-6873.197,-6862.4297,-6850.6763,-6848.368,-6860.3584,-6904.901,-6976.554,-7031.681,-7013.0938,-6993.0894,-7021.5527,-6985.8677,-6946.264,-6970.235,-6961.0786,-6950.14,-6950.9863,-6922.904,-6942.5386,-6994.866,-7000.607,-6978.297,-6915.414,-6853.658,-6868.9155,-6871.2183,-6867.475,-6920.402,-6926.6343,-6921.0044,-6939.2295,-6950.0664,-7029.9526,-7060.012,-7014.511,-7035.647,-7064.6406,-7072.089,-7005.891,-6868.6377,-6798.6367,-6775.122,-6774.5254,-6797.8726,-6817.0713,-6848.587,-6873.095,-6910.0728,-7009.08,-7133.167,-7200.634,-7156.0747,-7037.81,-6952.9165,-6958.28,-7056.6807,-7160.1455,-7164.6387,-7108.6636,-7022.596,-6930.934,-6862.167,-6777.111,-6743.732,-6791.3345,-6824.6196,-6850.861,-6903.5884,-6921.9116,-6886.867,-6853.6265,-6807.43,-6773.049,-6810.8647,-6847.7144,-6868.8066,-6927.13,-6995.337,-7068.885,-7120.808,-7114.295,-7157.013,-7216.832,-7140.3228,-7056.8774,-7025.51,-6991.361,-7030.7163,-7033.9155,-6995.662,-7002.0264,-6893.37,-6749.576,-6719.262,-6731.0986,-6768.6533,-6796.985,-6823.8823,-6868.3555,-6892.435,-6916.2144,-6909.6426,-6915.1914,-7025.8115,-7150.412,-7176.39,-7140.2617,-7091.721,-7002.0615,-6904.32,-6859.199,-6883.4116,-6935.831,-6928.7886,-6915.248,-6910.2334,-6848.086,-6831.554,-6843.6333,-6823.785,-6885.623,-6946.292,-6949.6973,-6987.303,-6999.108,-6976.929,-6953.492,-6964.2344,-6996.9478,-6988.461,-6990.3584,-6952.328,-6893.0083,-6879.6187,-6860.235,-6891.9766,-6939.159,-6929.7188,-6915.253,-6961.5483,-7068.324,-7149.7236,-7186.88,-7187.0938,-7134.006,-7025.268,-6930.9307,-6881.2583,-6841.2554,-6824.144,-6788.247,-6806.266,-6851.0576,-6812.964,-6826.1104,-6853.343,-6840.993,-6836.829,-6810.828,-6802.142,-6796.0444,-6788.151,-6802.765,-6812.28,-6808.772,-6815.0522,-6845.887,-6885.8745,-6931.3823,-6952.0977,-7019.8667,-7145.457,-7169.2593,-7158.503,-7159.0376,-7094.0703,-7067.901,-7068.0986,-6987.7876,-6909.1934,-6873.635,-6831.453,-6806.497,-6782.901,-6731.423,-6701.448,-6704.0103,-6771.9907,-6914.6353,-7009.507,-7024.6865,-6995.847,-6980.173,-7106.442,-7248.632,-7228.0005,-7142.086,-7012.0493,-6851.29,-6752.4487,-6707.437,-6726.488,-6769.791,-6792.818,-6803.596,-6782.4243,-6769.8447,-6760.537,-6723.07,-6705.9062,-6726.9253,-6756.603,-6765.565,-6766.696,-6787.5586,-6817.6743,-6861.5503,-6918.262,-6945.7974,-6971.791,-7032.8027,-7057.7866,-7053.335,-7095.8315,-7111.0103,-7047.8467,-7040.7246,-7089.006,-7115.182,-7219.269,-7285.2007,-7166.498,-6992.0337,-6827.516,-6792.354,-6877.8706,-6914.2993,-6930.6274,-6922.757,-6900.033,-6854.0845,-6745.3555,-6678.578,-6672.8604,-6722.123,-6787.5024,-6815.603,-6832.4087,-6822.2515,-6853.079,-6906.991,-6902.05,-6878.535,-6868.6284,-6913.0283,-6927.294,-6897.663,-6917.8765,-6912.7217,-6873.7144,-6839.99,-6831.116,-6836.677,-6820.4736,-6815.282,-6791.0854,-6766.323,-6759.2446,-6753.6733,-6790.619,-6837.3228,-6876.549,-6913.7046,-6969.733,-7000.8237,-6993.131,-7093.331,-7136.7188,-7007.8394,-6955.8013,-6916.492,-6822.9946,-6832.0156,-6849.964,-6825.748,-6819.4893,-6806.734,-6814.4805,-6812.6157,-6786.4688,-6784.8936,-6770.581,-6745.507,-6758.5254,-6793.4727,-6799.2007,-6823.258,-6954.081,-7113.6157,-7197.2944,-7193.847,-7146.3306,-7104.7373,-7034.631,-6974.3516,-6973.398,-6966.662,-6968.516,-7035.4536,-7172.6235,-7254.8315,-7214.191,-7115.3325,-6919.929,-6734.3096,-6626.467,-6563.433,-6607.2266,-6653.4663,-6685.3413,-6724.854,-6749.2085,-6807.8247,-6844.67,-6864.4536,-6860.057,-6832.373,-6837.839,-6831.913,-6809.205,-6775.9927,-6758.678,-6774.0464,-6772.233,-6769.0933,-6779.8804,-6791.238,-6812.2886,-6855.632,-6932.5073,-7000.1606,-7026.314,-7068.331,-7117.1187,-7108.353,-7066.2646,-7001.755,-6907.683,-6845.4517,-6831.757,-6838.3726,-6872.7275,-6885.8926,-6841.386,-6792.6265,-6766.8657,-6808.584,-6935.92,-7028.928,-7046.504,-7088.8003,-7112.877,-7028.636,-6913.937,-6816.2026,-6757.0234,-6761.83,-6748.767,-6728.5503,-6759.3306,-6783.741,-6822.281,-6883.248,-6844.239,-6759.6455,-6755.431,-6764.4453,-6778.9937,-6858.974,-6928.6313,-6936.141,-6943.847,-6952.6,-6905.524,-6862.7207,-6854.5376,-6818.094,-6778.236,-6752.8296,-6754.1836,-6771.7363,-6760.328,-6775.5854,-6820.9697,-6870.439,-6890.84,-6850.188,-6817.523,-6799.509,-6803.133,-6837.5244,-6871.733,-6912.355,-6950.3174,-6956.8213,-6897.7153,-6870.6284,-6924.114,-6950.7827,-6978.45,-7048.603,-7132.263,-7213.2334,-7278.822,-7316.4097,-7241.6807,-7042.0566,-6862.6924,-6740.275,-6629.1787,-6572.6914,-6565.946,-6611.7964,-6692.4507,-6740.6157,-6783.569,-6785.4497,-6765.5723,-6772.0713,-6747.073,-6739.9053,-6762.54,-6773.626,-6773.9673,-6761.6406,-6755.557,-6753.7456,-6768.559,-6802.403,-6860.2437,-6951.717,-7029.6387,-7077.963,-7118.8433,-7138.499,-7142.064,-7154.7236,-7116.297,-7032.938,-6935.7554,-6758.2505,-6621.9517,-6589.5283,-6550.697,-6583.3804,-6667.0444,-6740.473,-6871.2026,-6956.293,-6942.0254,-6893.859,-6852.655,-6832.7656,-6831.618,-6879.0425,-6869.6064,-6811.154,-6814.3735,-6807.6826,-6783.3784,-6758.5527,-6784.1895,-6833.143,-6828.1367,-6866.917,-6908.5977,-6926.0664,-6933.3745,-6939.2505,-7001.2075,-6976.0317,-6907.422,-6896.95,-6845.542,-6795.217,-6784.167,-6797.8286,-6807.352,-6782.36,-6765.4976,-6767.421,-6780.106,-6802.4995,-6808.9053,-6797.734,-6808.5483,-6821.5366,-6835.437,-6889.8374,-6934.2866,-6948.4497,-6954.522,-6946.185,-6913.459,-6860.1226,-6827.8096,-6835.463,-6859.8076,-6880.1055,-6869.295,-6826.3047,-6830.5127,-6861.9067,-6844.4575,-6850.118,-6887.008,-6901.156,-6890.72,-6882.297,-6904.7876,-6913.3584,-6937.548,-6983.322,-6991.2764,-7000.2554,-7022.18,-7079.118,-7139.3936,-7122.8657,-7072.1797,-6981.1357,-6841.947,-6763.6064,-6758.4272,-6747.0176,-6732.499,-6711.9746,-6699.176,-6719.847,-6713.457,-6726.5513,-6776.379,-6799.3076,-6835.322,-6863.965,-6880.0923,-6911.181,-6914.9795,-6909.4897,-6916.6284,-6921.5303,-6926.192,-6918.021,-6897.27,-6892.9404,-6919.7915,-6979.686,-7031.4434,-7004.3096,-6925.2505,-6865.8633,-6808.0244,-6744.1113,-6724.8057,-6730.5645,-6730.2627,-6746.3125,-6776.8887,-6816.834,-6857.7676,-6884.0283,-6890.201,-6867.822,-6831.518,-6816.7524,-6834.5654,-6842.803,-6831.891,-6826.0757,-6818.1846,-6816.409,-6808.8613,-6796.085,-6805.0664,-6814.7485,-6809.897,-6805.7407
-6824.8306,-6855.086,-6866.856,-6866.029,-6876.9976,-6908.961,-6936.1055,-6957.5415,-6990.5244,-7042.069,-7108.3247,-7135.08,-7087.265,-6997.3374,-6918.081,-6874.383,-6854.666,-6833.1636,-6793.181,-6746.052,-6726.748,-6750.372,-6777.8657,-6807.8774,-6852.765,-6874.082,-6877.227,-6897.652,-6934.501,-6939.224,-6895.666,-6848.8193,-6849.3477,-6904.237,-6951.4346,-6990.575,-7025.3447,-7013.0034,-6969.182,-6936.391,-6939.619,-6933.241,-6951.9062,-7060.995,-7177.5977,-7255.3364,-7293.3643,-7262.2847,-7127.8325,-6932.237,-6772.2456,-6678.704,-6659.7896,-6661.814,-6666.2476,-6723.8486,-6774.402,-6783.7627,-6822.6323,-6884.2227,-6969.4956,-7124.4697,-7264.2134,-7286.4287,-7174.755,-7053.327,-6996.6157,-6923.361,-6879.242,-6841.1514,-6809.644,-6812.5303,-6774.638,-6794.5723,-6822.603,-6820.655,-6859.4727,-6882.6655,-6910.9077,-6897.013,-6895.5015,-6945.462,-6925.1084,-6877.4497,-6856.772,-6884.7573,-6927.121,-6950.531,-6975.609,-6995.3013,-7021.65,-7017.5396,-6984.43,-6946.639,-6935.4316,-6949.061,-6943.3394,-6977.75,-6986.9893,-6942.775,-6938.4897,-6903.7715,-6848.191,-6832.593,-6814.155,-6792.6123,-6799.115,-6844.7437,-6888.6855,-6926.1313,-6962.5205,-6983.1143,-7083.3164,-7207.963,-7203.009,-7112.087,-7007.262,-6966.065,-6993.151,-7062.4653,-7140.9624,-7091.043,-7002.1694,-6929.6543,-6826.5464,-6802.178,-6802.996,-6803.133,-6832.583,-6884.3535,-6980.073,-7010.302,-6988.0596,-6948.2905,-6893.33,-6896.334,-6878.6895,-6879.1636,-6932.62,-6916.295,-6885.9756,-6873.452,-6842.2026,-6814.217,-6797.872,-6819.465,-6855.4194,-6879.213,-6895.3394,-6909.103,-6964.823,-7036.165,-7047.8057,-7018.683,-7000.4653,-6982.657,-6975.947,-7007.0474,-7020.333,-6982.5737,-6955.77,-6966.526,-6978.6587,-7008.293,-7043.977,-7040.168,-6998.233,-6904.214,-6826.897,-6823.208,-6836.115,-6872.999,-6940.395,-6986.256,-6994.864,-6989.28,-6980.7334,-6984.7065,-7027.1147,-7038.4985,-6979.9434,-6945.2773,-6919.1953,-6865.2427,-6861.461,-6884.746,-6894.323,-6902.165,-6903.9287,-6919.5654,-6939.798,-6973.691,-7014.0615,-7023.5513,-7053.026,-7170.628,-7350.952,-7440.392,-7335.984,-7120.804,-6940.1836,-6853.3667,-6805.878,-6774.9937,-6771.2886,-6790.428,-6855.5845,-6926.3228,-6945.9224,-6946.2954,-6930.33,-6903.323,-6898.9624,-6879.3687,-6853.784,-6837.3545,-6822.7183,-6845.939,-6860.688,-6867.0615,-6913.2485,-6964.3003,-7013.1353,-7075.2397,-7160.6714,-7218.898,-7207.713,-7176.942,-7101.394,-6994.416,-6940.654,-6911.0405,-6885.093,-6871.813,-6851.044,-6828.6484,-6829.9395,-6848.1406,-6834.6514,-6835.6655,-6901.6675,-6964.063,-7009.598,-7044.3125,-7033.211,-7009.985,-7014.3115,-7002.407,-6956.66,-6946.7256,-6973.305,-6962.622,-6948.974,-7006.697,-7061.871,-7050.724,-7057.145,-7090.791,-7076.2173,-7037.31,-7007.19,-6966.079,-6928.71,-6895.781,-6879.6226,-6900.4126,-6922.14,-6945.107,-6961.0654,-6970.306,-6989.3164,-6985.6084,-6980.7324,-6985.3423,-6974.095,-6962.228,-6984.56,-7022.319,-7025.8086,-7053.5576,-7108.486,-7148.038,-7227.5464,-7285.509,-7265.7383,-7231.847,-7161.3486,-7054.536,-6982.234,-6953.5625,-6950.89,-6943.905,-6924.678,-6911.238,-6890.972,-6889.2017,-6901.863,-6883.1025,-6859.565,-6857.537,-6890.8623,-6954.48,-7041.0146,-7138.6675,-7209.323,-7275.686,-7290.0923,-7228.1685,-7168.078,-7108.347,-7083.0596,-7094.8037,-7057.99,-6960.971,-6885.942,-6872.55,-6867.864,-6905.3506,-6946.7783,-6934.6216,-6949.0356,-6949.685,-6947.1094,-6986.9346,-7017.5615,-7055.7524,-7073.3594,-7066.626,-7058.63,-7028.839,-7020.8755,-7046.5093,-7100.312,-7155.1777,-7146.646,-7089.176,-7014.9507,-6947.7324,-6899.2466,-6859.241,-6857.8423,-6884.6396,-6896.1743,-6898.4785,-6899.5044,-6912.9287,-6942.501,-6994.87,-7073.916,-7101.6543,-7060.769,-7056.64,-7085.5396,-7071.635,-7058.8706,-7052.8296,-7020.08,-7004.8223,-7004.687,-7011.6016,-7012.506,-6983.213,-6970.301,-6992.953,-7019.239,-7010.7085,-6976.754,-6955.4917,-6946.7197,-6961.1885,-6979.44,-7000.179,-7069.3457,-7122.442,-7126.048,-7137.2354,-7129.1606,-7099.502,-7045.9,-6975.662,-7000.613,-7047.651,-7018.1914,-7015.9995,-7031.0195,-7012.012,-7006.459,-7015.9067,-7032.9883,-7072.005,-7104.3496,-7126.263,-7180.236,-7263.2295,-7371.8228,-7451.481,-7444.033,-7400.147,-7272.725,-7103.918,-7020.5317,-6899.1772,-6776.0522,-6786.7256,-6841.8784,-6912.3647,-6968.475,-6979.891,-6976.6445,-6982.1714,-6998.5117,-6971.0737,-6966.4233,-6982.356,-6969.264,-6969.95,-6943.2393,-6946.1094,-6975.2397,-6980.015,-6997.4517,-6993.248,-7008.4136,-7029.6123,-7026.1836,-7032.5884,-7031.9414,-7050.5737,-7072.069,-7088.882,-7117.966,-7154.9136,-7192.9717,-7183.5093,-7149.353,-7080.0327,-6991.735,-6983.646,-7012.023,-7038.906,-7053.0986,-7039.365,-7075.259,-7172.2734,-7258.541,-7256.835,-7165.344,-7091.909,-7037.412,-6947.3257,-6898.5845,-6887.594,-6870.0815,-6886.77,-6890.204,-6900.136,-6951.7817,-6976.6226,-7004.295,-7026.092,-7023.1177,-7047.534,-7081.768,-7104.997,-7116.883,-7126.5967,-7129.8545,-7117.634,-7107.8354,-7080.268,-7026.2686,-6994.9,-7002.976,-7003.4053,-7002.417,-7044.045,-7095.035,-7110.9033,-7086.917,-7052.2886,-7060.5083,-7091.99,-7063.104,-6997.6055,-6986.7285,-7006.8525,-7006.326,-6999.1084,-6995.9507,-7032.783,-7094.662,-7099.1655,-7132.028,-7216.5947,-7194.059,-7125.002,-7111.1353,-7146.671,-7222.0947,-7228.258,-7167.862,-7114.797,-7057.187,-7003.236,-6995.5513,-7027.736,-7005.668,-6995.472,-7064.469,-7100.918,-7101.1675,-7102.3545,-7075.097,-7007.7573,-6950.001,-6915.0063,-6894.523,-6921.043,-6967.969,-7020.0034,-7067.391,-7117.5264,-7163.255,-7158.7217,-7162.8506,-7189.4897,-7170.0527,-7127.6978,-7116.79,-7101.298,-7087.01,-7102.859,-7081.2095,-7059.4683,-7083.5767,-7098.112,-7091.3374,-7063.809,-7019.478,-6989.0454,-6999.5337,-7016.7974,-7017.538,-7021.787,-7053.4834,-7141.206,-7210.975,-7243.009,-7291.5776,-7293.2407,-7250.245,-7220.4824,-7238.3447,-7250.3003,-7152.193,-7142.9106,-7239.4775,-7243.497,-7261.866,-7219.749,-7102.1797,-7030.575,-6925.292,-6866.5537,-6863.0527,-6887.99,-6931.2456,-6938.1826,-6971.111,-6977.205,-6961.493,-6949.586,-6935.101,-6956.122,-6967.747,-6997.0625,-7037.8647,-7082.2993,-7129.199,-7145.714,-7188.586,-7223.093,-7227.0195,-7227.2114,-7209.5894,-7192.3457,-7151.8433,-7098.051,-7067.1055,-7041.977,-7036.394,-7044.4375,-7032.492,-7026.122,-7036.2944,-7031.105,-7019.2075,-7027.036,-7041.466,-7041.549,-7045.766,-7056.8843,-7065.148,-7086.334,-7108.5093,-7123.563,-7131.9995,-7134.777,-7137.943,-7116.2446,-7073.956,-7049.297,-7062.08,-7088.1587,-7103.6777,-7138.0503,-7181.323,-7218.095,-7243.553,-7190.4727,-7110.9404,-7093.509,-7073.7163,-7069.0747,-7109.3193,-7125.1147,-7139.979,-7189.329,-7231.003,-7173.1855,-7048.5986,-6999.9614,-6992.6016,-6986.94,-6998.494,-7001.983,-7027.649,-7061.608,-7083.2676,-7096.1313,-7093.2344,-7099.045,-7101.104,-7113.163,-7140.7007,-7136.9546,-7127.445,-7127.0215,-7122.4985,-7115.3706,-7097.53,-7100.392,-7110.848,-7096.3457,-7092.9517,-7105.976,-7120.562,-7120.2637,-7106.962,-7111.236,-7098.473,-7067.0713,-7075.281,-7112.947,-7146.336,-7185.34,-7235.8467,-7247.764,-7252.211,-7315.7744,-7308.909,-7212.2773,-7187.66,-7158.6562,-7071.9497,-7039.0,-7018.6304,-7019.025,-7080.763,-7118.8228,-7128.467,-7139.0186,-7149.942,-7152.205,-7166.36,-7203.3438,-7197.5093,-7159.3447,-7101.31,-7049.794,-7063.5986,-7077.569,-7092.4717,-7167.702,-7264.002,-7319.9277,-7323.4253,-7303.1187,-7251.754,-7169.787,-7112.873,-7108.3047,-7109.9307,-7096.3765,-7103.828,-7123.126,-7127.0566,-7110.11,-7108.235,-7137.5894,-7124.3203,-7081.466,-7052.5664,-7016.8145,-7008.2856,-7036.2456,-7085.8022,-7132.2,-7147.434,-7178.0303,-7200.8843,-7185.8213,-7204.5728,-7227.334,-7203.7256,-7190.522,-7175.7407,-7145.821,-7147.6216,-7162.9185,-7168.0195,-7161.72,-7165.7666,-7174.496,-7162.471,-7187.3457,-7229.0234,-7230.4707,-7210.448,-7172.6123,-7147.8604,-7154.0635,-7162.805,-7155.473,-7144.1445,-7133.6216,-7112.479,-7105.783,-7113.922,-7124.093,-7123.3374,-7111.9272,-7126.165,-7160.227,-7193.478,-7185.1147,-7153.4517,-7170.3135,-7181.1777,-7173.687,-7208.4834,-7250.6333,-7266.7637,-7249.222,-7233.618,-7275.8364,-7299.8394,-7272.819,-7266.651,-7240.512,-7182.0845,-7156.7314,-7131.084,-7092.387,-7108.2856,-7191.3125,-7263.5825,-7270.0996,-7251.3667,-7244.508,-7254.4194,-7241.71,-7173.632,-7108.8496,-7064.9976,-7035.5127,-7030.368,-7036.4614,-7065.16,-7091.941,-7111.6177,-7141.2993,-7161.3486,-7188.918,-7215.827,-7231.289,-7238.681,-7225.6704,-7216.824,-7206.3135,-7187.2554,-7161.413,-7115.779,-7089.6885,-7095.1387,-7104.525,-7109.137,-7117.9214,-7137.874,-7147.5312,-7144.943,-7148.225,-7163.579,-7184.3413,-7212.685,-7234.022,-7220.3804,-7210.2827,-7213.7407,-7221.184,-7237.636,-7228.7915,-7203.457,-7171.936,-7161.879,-7175.804,-7178.871,-7201.885,-7213.182,-7214.9414,-7241.9414,-7264.1294,-7274.3975,-7254.396,-7230.1973,-7219.5063,-7196.2686,-7152.7046,-7131.168,-7174.5615,-7218.3086,-7261.818,-7298.0293,-7293.45,-7325.364,-7359.0913,-7334.5005,-7272.628,-7176.323,-7113.972,-7122.748,-7129.7227,-7122.046,-7119.181,-7116.596,-7130.6523,-7132.159,-7144.356,-7169.5117,-7157.0723,-7168.943,-7181.141,-7192.474,-7247.3486,-7267.8115,-7258.164,-7249.511,-7257.3354,-7258.8057,-7232.8306,-7238.8784,-7250.527,-7261.425,-7270.0513,-7267.7476,-7295.3135,-7296.5815,-7282.452,-7307.664,-7308.6006,-7265.99,-7222.066,-7186.437,-7177.3887,-7194.2334,-7200.573,-7232.445,-7275.8335,-7250.1187,-7222.828,-7225.731,-7188.976,-7160.3564,-7173.4043,-7196.9365,-7211.4385,-7203.214,-7240.2524,-7294.03,-7266.9453,-7237.2075,-7238.753,-7212.2236,-7214.533,-7271.5737,-7295.5996,-7323.848,-7418.038,-7448.8384,-7368.5576,-7290.5874,-7234.3184,-7171.3115,-7142.604,-7149.9165,-7159.636,-7184.457,-7221.6636,-7251.275,-7260.8247,-7261.6147,-7265.5073,-7251.1636,-7222.2964,-7179.833,-7140.86,-7133.3237,-7128.6475,-7129.3867,-7156.5874,-7189.565,-7216.9023,-7237.297,-7242.564,-7245.6294,-7261.662,-7265.99,-7260.2295,-7276.633,-7283.4844,-7261.045,-7245.0815,-7228.937,-7208.9297,-7194.4697,-7177.873,-7183.5596,-7206.3706,-7235.7144,-7284.954,-7332.5244,-7364.3857,-7383.934,-7400.5933,-7395.8247,-7384.631,-7387.1807,-7323.3413,-7232.6807,-7179.6562,-7129.6694,-7130.347,-7159.961,-7169.1055,-7195.33,-7220.534,-7210.4077,-7187.225,-7190.8784,-7200.917,-7201.525,-7213.05,-7225.307,-7240.4834,-7239.6074,-7225.1777,-7218.189,-7190.6704,-7179.0884,-7198.253,-7207.626,-7216.7983,-7219.5625,-7224.4946,-7239.8203,-7249.365,-7267.7256,-7283.385,-7296.587,-7318.086,-7331.994,-7345.888,-7353.5605,-7354.295,-7359.11,-7338.712,-7303.795,-7304.5166,-7287.8354,-7223.8145,-7196.8706,-7191.5,-7184.122,-7212.433,-7257.9204,-7298.2397,-7308.498,-7297.516,-7281.936,-7264.6104,-7236.168,-7189.158,-7188.695,-7208.675,-7204.8994,-7217.164,-7245.7446,-7275.502,-7294.2783,-7334.0493,-7353.7695,-7309.639,-7297.968,-7304.825,-7285.678,-7269.4155,-7251.166,-7246.4043,-7260.4307,-7264.167,-7251.8306,-7268.7935,-7301.073,-7314.9453,-7351.704,-7347.599,-7299.7134,-7304.2456,-7280.448,-7237.7983,-7259.0977,-7254.382,-7228.1597,-7227.744,-7223.3506,-7248.3896,-7319.0903,-7413.223,-7480.8506,-7513.7676,-7527.4175,-7457.2554,-7352.842,-7273.654,-7203.244,-7167.9385,-7153.451,-7181.2393,-7228.5483,-7250.885,-7268.207,-7248.373,-7237.697,-7243.693,-7231.991,-7235.3257,-7219.668,-7203.65,-7192.806,-7183.212,-7209.4756,-7221.631,-7231.905,-7261.5337,-7288.89,-7316.702,-7334.502,-7362.415,-7388.6104,-7378.2124,-7342.9937,-7312.2847,-7310.5737,-7330.446,-7337.3994,-7303.7964,-7275.992,-7277.988,-7257.6445,-7241.3403,-7271.5063,-7307.1274,-7313.3774,-7316.2104,-7308.5635,-7279.3936,-7263.398,-7246.1196,-7251.464,-7276.493,-7279.5283,-7279.9614,-7282.2705,-7349.7007,-7430.098,-7407.943,-7350.957,-7296.292,-7247.5386,-7219.269,-7207.904,-7216.217,-7219.724,-7233.109,-7270.6343,-7291.0435,-7282.1714,-7283.584,-7294.1406,-7297.178,-7295.988,-7292.9204,-7318.2236,-7336.5127,-7324.8315,-7323.3623,-7327.9517,-7357.226,-7379.498,-7355.9893,-7361.224,-7398.989,-7400.2026,-7380.5107,-7367.11,-7330.9644,-7298.2324,-7297.057,-7284.644,-7277.7305,-7289.8154,-7282.4883,-7283.825,-7301.75,-7302.629,-7304.5435,-7296.7603,-7271.5645,-7274.358,-7295.9756,-7298.344,-7295.794,-7314.441,-7322.7427,-7315.1177,-7330.7915,-7360.158,-7408.191,-7454.117,-7447.409,-7423.502,-7402.0,-7369.3,-7368.425,-7400.51,-7432.4253,-7444.99,-7381.4346,-7298.895,-7279.0347,-7270.8125,-7263.257,-7262.4395,-7272.913,-7294.755,-7303.1377,-7316.503,-7327.77,-7336.5337,-7351.101,-7353.0586,-7347.6455,-7349.5957,-7354.6455,-7340.5366,-7332.5947,-7327.966,-7302.721,-7313.913,-7350.821,-7358.897,-7358.049,-7366.9014,-7364.698,-7348.283,-7348.582,-7363.7866,-7369.2593,-7351.6997,-7328.2437
