SampleData
0.0,-8738.755,-24267.139,-12993.869,3952.0447,-11378.859,-9680.94,-1649.5309,-12730.886,-5438.8887,-7650.7676,-11152.071,-5256.9155,-11685.899,-7372.8276,-8757.314,-10063.631,-6498.667,-10272.544,-6565.759,-8286.564,-7770.4316,-6334.056,-8401.362,-5941.1064,-7954.008,-6958.2295,-7247.024,-8218.714,-7207.842,-8848.756,-7918.9277,-8765.808,-8770.213,-8430.478,-9098.772,-8208.801,-8711.892,-8095.249,-7955.2437,-7912.881,-7338.8,-7627.187,-7136.3325,-7336.91,-7302.693,-7309.8203,-7657.4126,-7604.8335,-8043.4175,-8104.95,-8338.192,-8530.122,-8508.293,-8688.112,-8539.478,-8529.918,-8368.191,-8169.7964,-8039.259,-7781.9595,-7680.6406,-7507.5996,-7443.652,-7420.311,-7422.382,-7546.501,-7618.8184,-7791.526,-7965.728,-8131.972,-8291.406,-8396.269,-8488.632,-8500.779,-8484.597,-8402.392,-8292.685,-8173.2476,-8004.2866,-7855.7495,-7714.634,-7619.54,-7551.881,-7514.8174,-7554.691,-7620.3994,-7710.5005,-7826.6484,-7972.4443,-8113.2373,-8225.127,-8313.79,-8360.956,-8390.223,-8366.684,-8293.735,-8212.387,-8106.986,-7993.279,-7872.24,-7765.7334,-7692.0933,-7641.24,-7624.159,-7643.177,-7701.341,-7770.0776,-7862.0684,-7985.1543,-8076.6597,-8157.2515,-8227.266,-8261.971,-8287.34,-8270.819,-8216.811,-8151.8027,-8069.2725,-7982.0806,-7887.275,-7806.8027,-7754.695,-7718.169,-7703.553,-7718.551,-7762.5537,-7808.026,-7866.161,-7950.86,-8021.208,-8085.458,-8140.8184,-8162.761,-8173.32,-8160.13,-8119.917,-8069.239,-8006.858,-7946.6562,-7881.296,-7824.9565,-7794.4995,-7771.508,-7761.2163,-7773.5117,-7808.4688,-7842.419,-7880.2974,-7945.1064,-7999.059,-8037.6416,-8065.88,-8075.9116,-8088.4453,-8076.437,-8041.034,-8010.605,-7977.1826,-7942.3027,-7890.0254,-7843.163,-7829.2046,-7816.3003,-7808.346,-7826.1924,-7856.169,-7878.1797,-7913.899,-7966.4546,-7990.5103,-8009.563,-8040.137,-8049.291,-8052.2554,-8043.744,-8017.4326,-7995.5415,-7968.0327,-7942.451,-7918.748,-7897.0522,-7893.555,-7884.02,-7879.154,-7895.2046,-7906.9316,-7910.6,-7919.1714,-7944.4424,-7966.148,-7977.597,-7987.7646,-7985.903,-7992.059,-7991.592,-7973.054,-7963.437,-7948.263,-7936.476,-7930.0938,-7918.444,-7920.6436,-7924.021,-7922.802,-7932.439,-7948.809,-7945.2236,-7938.936,-7959.958,-7965.1226,-7961.8223,-7963.434,-7952.248,-7957.6367,-7956.361,-7946.1455,-7950.261,-7946.602,-7941.761,-7937.0225,-7933.5977,-7938.6177,-7943.5005,-7944.389,-7954.1665,-7968.0786,-7958.68,-7959.185,-7973.7554,-7961.822,-7946.809,-7938.0347,-7931.0195,-7935.066,-7931.1616,-7926.332,-7937.4805,-7946.285,-7947.8086,-7951.8403,-7962.686,-7979.9277,-7993.0015,-7992.1733,-7992.378,-7999.592,-7983.038,-7963.206,-7966.9893,-7958.186,-7938.814,-7923.4897,-7916.013,-7923.8174,-7920.7705,-7915.742,-7923.6357,-7933.66,-7944.988,-7952.4443,-7974.51,-7996.397,-8000.691,-8010.935,-8015.5054,-8012.2383,-7994.9385,-7972.5063,-7964.9,-7943.1074,-7926.126,-7915.6143,-7899.6797,-7906.3286,-7902.4204,-7896.6562,-7912.1436,-7925.146,-7948.7383,-7964.6875,-7973.7607,-8000.7686,-8014.939,-8016.8057,-8026.2627,-8023.914,-7997.903,-7981.2246,-7976.7686,-7947.093,-7920.4233,-7910.906,-7896.181,-7895.301,-7899.0767,-7902.96,-7917.795,-7929.8804,-7949.1875,-7969.795,-7983.327,-8006.1836,-8021.197,-8019.1753,-8025.073,-8023.6924,-7993.203,-7967.4316,-7956.3496,-7940.2476,-7927.7314,-7914.713,-7896.453,-7890.271,-7888.956,-7887.307,-7897.863,-7918.0796,-7941.306,-7958.6157,-7974.7036,-7999.6743,-8017.154,-8016.3936,-8017.6885,-8022.5986,-7997.524,-7970.185,-7964.3726,-7938.8345,-7914.6895,-7901.0435,-7884.7217,-7889.255,-7892.61,-7894.967,-7907.2603,-7920.756,-7942.8364,-7959.8364,-7977.991,-7998.551,-8008.1855,-8012.2417,-8012.3564,-8009.7,-7996.9106,-7982.7876,-7971.2134,-7947.6953,-7924.273,-7904.394,-7885.679,-7889.414,-7901.351,-7905.2563,-7918.7026,-7927.715,-7940.9966,-7961.25,-7973.1914,-8000.468,-8013.063,-8006.0635,-8013.528,-8014.034,-7985.5903,-7953.3984,-7952.571,-7936.564,-7917.5356,-7921.2886,-7897.767,-7893.286,-7898.9023,-7895.8354,-7916.597,-7926.984,-7944.9062,-7962.549,-7972.036,-7992.609,-8003.7383,-8014.3877,-8017.9463,-8017.6357,-7999.4634,-7970.534,-7969.1855,-7953.7456,-7935.726,-7922.01,-7899.169,-7903.9546,-7904.352,-7907.0444,-7929.1367,-7939.9175,-7952.575,-7968.8853,-7992.0435,-8009.7427,-8010.544,-8013.834,-8016.9077,-8016.9775,-7999.3994,-7983.154,-7982.5713,-7957.6724,-7936.648,-7931.347,-7916.5195,-7921.2837,-7925.295,-7917.981,-7929.193,-7941.0894,-7953.844,-7966.3525,-7975.061,-7991.303,-7996.7695,-7993.637,-7996.984,-7995.2573,-7973.376,-7953.6987,-7956.1743,-7949.6567,-7932.241,-7918.06,-7905.8413,-7910.381,-7915.3047,-7910.4683,-7916.1963,-7927.0557,-7938.5474,-7947.9087,-7953.579,-7968.642,-7977.243,-7970.2715,-7976.168,-7979.787,-7954.8936,-7942.6206,-7944.753,-7927.6733,-7924.8345,-7926.0884,-7910.7373,-7917.847,-7924.368,-7927.0884,-7946.95,-7953.9062,-7956.686,-7964.6836,-7975.8696,-7991.319,-7996.273,-7992.787,-7990.974,-7991.055,-7974.6475,-7966.3975,-7977.52,-7956.094,-7932.9595,-7927.8228,-7909.927,-7910.462,-7916.247,-7914.461,-7924.206,-7927.201,-7935.0845,-7945.758,-7953.267,-7968.3306,-7974.994,-7976.28,-7978.045,-7976.596,-7958.437,-7940.696,-7948.0996,-7945.4805,-7939.705,-7936.5283,-7925.302,-7934.025,-7938.8633,-7934.3657,-7937.2573,-7937.4077,-7944.053,-7947.507,-7949.664,-7959.099,-7964.1426,-7970.7583,-7979.9155,-7981.6587,-7968.5273,-7955.506,-7954.39,-7946.3916,-7938.957,-7936.2456,-7932.7393,-7940.4688,-7939.1313,-7934.111,-7938.212,-7939.0635,-7947.8145,-7948.9404,-7951.5356,-7965.7627,-7964.4756,-7963.132,-7969.1167,-7970.824,-7957.58,-7951.3394,-7965.69,-7957.314,-7947.124,-7944.183,-7931.6577,-7937.6636,-7936.333,-7934.5186,-7948.035,-7945.6357,-7948.2173,-7951.044,-7947.1655,-7951.032,-7951.67,-7957.1416,-7961.207,-7959.8164,-7949.3945,-7939.475,-7955.698,-7959.086,-7949.0874,-7943.5186,-7931.3896,-7940.8906,-7947.897,-7942.28,-7947.9224,-7949.713,-7954.3613,-7951.123,-7944.084,-7954.468,-7957.7275,-7953.0015,-7959.2607,-7961.0415,-7946.6406,-7947.053,-7954.892,-7942.7173,-7940.38,-7938.714,-7929.429,-7938.4814,-7940.453,-7935.675,-7939.0234,-7942.032,-7946.156,-7942.194,-7941.416,-7948.318,-7946.7163,-7941.8643,-7946.165,-7951.275,-7941.308,-7943.2637,-7955.3687,-7946.213,-7941.8154,-7943.5054,-7941.3784,-7954.0527,-7959.1533,-7951.201,-7950.243,-7951.588,-7951.54,-7944.7627,-7942.9062,-7952.1753,-7952.9087,-7949.8223,-7954.698,-7959.7593,-7946.358,-7933.0645,-7945.7207,-7950.6294,-7948.7295,-7951.548,-7945.4023,-7949.8286,-7949.6553,-7943.473,-7946.8555,-7945.877,-7952.2993,-7950.99,-7942.957,-7950.5444,-7950.5356,-7946.578,-7953.7773,-7953.875,-7939.042,-7934.384,-7941.152,-7937.0337,-7934.2783,-7933.6226,-7933.173,-7943.0127,-7941.665,-7932.251,-7934.666,-7942.9644,-7948.64,-7941.898,-7935.6426,-7943.776,-7948.9478,-7947.7144,-7954.7065,-7956.7017,-7939.8623,-7939.2437,-7954.4043,-7949.3833,-7947.577,-7945.5327,-7933.183,-7943.5693,-7948.1367,-7940.0073,-7940.1113,-7934.4272,-7938.3774,-7938.3364,-7927.7188,-7932.459,-7935.3726,-7933.346,-7942.1523,-7948.877,-7936.3306,-7932.274,-7948.6997,-7949.77,-7948.1274,-7948.938,-7939.97,-7945.053,-7950.008,-7945.8345,-7945.5283,-7945.5415,-7946.1733,-7940.3574,-7941.6343,-7952.15,-7952.481,-7949.029,-7948.873,-7953.598,-7949.4814,-7945.713,-7959.213,-7961.1777,-7957.778,-7954.635,-7944.599,-7946.4766,-7945.77,-7949.785,-7957.5537,-7954.0386,-7955.9575,-7949.6074,-7947.4116,-7953.7427,-7952.854,-7953.685,-7954.1978,-7959.884,-7948.605,-7945.3467,-7967.21,-7958.6094,-7960.2656,-7976.1567,-7969.1924,-7969.6743,-7961.329,-7955.868,-7960.7734,-7953.175,-7952.9595,-7946.1655,-7942.664,-7956.2754,-7956.346,-7952.159,-7958.9043,-7964.889,-7949.4985,-7937.5234,-7956.603,-7961.4106,-7949.7764,-7946.886,-7946.287,-7955.3975,-7958.756,-7951.807,-7950.203,-7954.153,-7956.681,-7950.829,-7951.1465,-7954.6367,-7957.352,-7956.8926,-7950.4116,-7954.7715,-7948.4165,-7942.828,-7953.561,-7950.8164,-7955.628,-7959.4824,-7951.551,-7959.834,-7957.8003,-7949.804,-7951.8726,-7949.292,-7954.35,-7953.48,-7947.4917,-7953.951,-7954.489,-7952.1147,-7958.9087,-7961.1206,-7945.3125,-7940.616,-7959.5503,-7964.183,-7965.2593,-7966.934,-7954.9644,-7963.7563,-7974.002,-7964.6323,-7966.4,-7969.35,-7967.71,-7963.206,-7953.7744,-7953.7676,-7954.417,-7954.266,-7961.8325,-7964.698,-7948.546,-7936.6084,-7951.0396,-7956.025,-7953.0156,-7954.4517,-7948.099,-7957.3184,-7962.03,-7955.9736,-7957.486,-7946.5864,-7942.787,-7945.2593,-7944.002,-7953.527,-7951.4517,-7942.617,-7947.5376,-7952.4326,-7942.876,-7937.2393,-7946.765,-7941.0884,-7938.1016,-7946.565,-7943.7744,-7951.5986,-7954.3438,-7953.5464,-7954.9688,-7939.3013,-7941.5557,-7948.1865,-7942.1167,-7941.9106,-7943.1675,-7948.6465,-7953.1514,-7959.987,-7956.64,-7948.9883,-7959.8306,-7957.855,-7953.39,-7955.743,-7947.811,-7953.4717,-7955.887,-7949.8164,-7954.1187,-7950.7993,-7950.7534,-7949.879,-7938.44,-7942.7026,-7948.728,-7943.61,-7946.34,-7951.683,-7941.6665,-7930.694,-7937.373,-7938.42,-7932.056,-7933.1064,-7938.0264,-7950.317,-7952.743,-7948.5586,-7948.735,-7944.7075,-7948.2534,-7946.51,-7939.0825,-7944.788,-7947.5405,-7940.7017,-7940.5454,-7944.6553,-7931.27,-7927.662,-7945.045,-7941.2524,-7939.0195,-7944.1777,-7935.9546,-7943.6147,-7951.7476,-7946.3228,-7942.0273,-7941.1846,-7945.4067,-7939.2134,-7935.881,-7940.0527,-7937.5586,-7937.194,-7938.383,-7939.7124,-7929.1333,-7929.38,-7949.629,-7943.8843,-7939.4126,-7942.2236,-7931.534,-7940.1997,-7943.3213,-7932.9463,-7927.8257,-7919.0527,-7926.4946,-7934.629,-7931.4663,-7939.8193,-7944.658,-7939.745,-7946.1587,-7951.647,-7930.4004,-7916.432,-7932.5083,-7937.954,-7930.849,-7929.49,-7927.776,-7931.9624,-7936.391,-7938.9727,-7945.72,-7942.091,-7937.789,-7939.5796,-7930.947,-7929.296,-7937.074,-7929.9097,-7929.1895,-7938.564,-7931.239,-7930.1216,-7936.7935,-7931.7935,-7934.215,-7930.793,-7924.4824,-7939.357,-7941.3525,-7936.1694,-7942.613,-7942.304,-7940.796,-7936.2056,-7935.3994,-7942.605,-7943.234,-7939.57,-7939.2305,-7942.6987,-7932.98,-7929.4155,-7944.0044,-7940.441,-7936.808,-7936.086,-7927.3257,-7937.926,-7938.7393,-7930.5044,-7933.6255,-7927.4004,-7929.2495,-7928.9585,-7920.8696,-7926.4697,-7928.652,-7930.38,-7939.6934,-7943.29,-7931.894,-7924.2646,-7938.3345,-7946.306,-7943.9434,-7941.4224,-7937.5635,-7947.759,-7954.5723,-7947.6772,-7946.0034,-7946.904,-7947.8916,-7942.2114,-7937.915,-7945.247,-7939.6597,-7932.114,-7944.1616,-7949.2983,-7936.89,-7935.9673,-7946.859,-7943.3403,-7940.7266,-7936.709,-7928.2397,-7941.344,-7944.201,-7939.9443,-7945.034,-7938.631,-7936.0176,-7931.008,-7927.7446,-7934.295,-7936.366,-7934.1543,-7936.845,-7950.035,-7939.2236,-7931.9336,-7952.21,-7949.2114,-7948.2925,-7952.022,-7942.501,-7950.711,-7953.7095,-7945.58,-7943.0854,-7941.165,-7943.524,-7939.577,-7938.2085,-7944.812,-7943.356,-7941.4136,-7945.6484,-7952.372,-7942.1587,-7927.5415,-7934.653,-7936.0977,-7936.1504,-7937.8325,-7932.5356,-7942.2437,-7944.4087,-7940.706,-7944.4414,-7942.1416,-7945.4155,-7942.9185,-7938.9834,-7944.745,-7943.4824,-7939.5635,-7945.302,-7952.6226,-7939.696,-7930.1284,-7936.0874,-7934.122,-7941.6685,-7944.656,-7933.7456,-7935.5845,-7938.0684,-7938.113,-7934.513,-7931.3804,-7936.682,-7937.3604,-7938.877,-7940.787,-7941.819,-7936.5547,-7931.9517,-7939.9395,-7936.7197,-7943.147,-7955.493,-7943.607,-7942.5244,-7944.7344,-7940.3315,-7946.1733,-7941.8945,-7936.4717,-7939.7207,-7941.6016,-7942.2925,-7934.376,-7931.783,-7943.831,-7947.5186,-7938.67,-7941.3193,-7948.039,-7932.864,-7928.617,-7947.2,-7949.453,-7947.078,-7947.101,-7942.8438,-7946.8154,-7941.4033,-7939.634,-7947.5986,-7940.551,-7940.0845,-7939.762,-7934.7427,-7948.0986,-7952.4106,-7939.518,-7937.9697,-7943.9834,-7938.773,-7934.7476,-7944.1626,-7944.6416,-7941.233,-7941.6304,-7936.513,-7943.0635,-7949.6636,-7950.1587,-7952.557,-7950.9644,-7952.979,-7946.264,-7939.025,-7947.781,-7957.487,-7950.9556,-7943.321,-7952.4214,-7946.0054,-7944.6543,-7956.819,-7945.131,-7942.0684,-7945.9956,-7942.0103,-7946.459,-7949.343,-7951.277,-7948.8965,-7948.228,-7956.3335,-7953.1055,-7947.724,-7952.771,-7952.19,-7942.143,-7942.147,-7952.794,-7941.889,-7927.8516,-7942.462,-7948.367,-7943.6045,-7944.225,-7938.383,-7944.8296,-7951.4653,-7947.5596,-7947.151,-7943.8,-7943.397,-7939.089,-7939.0044,-7949.0117,-7945.9385,-7942.202,-7945.336,-7953.0283,-7956.7344,-7950.557,-7957.4556,-7960.0317,-7952.735,-7949.453,-7942.6313,-7949.3804,-7952.3633,-7946.632,-7950.036,-7944.3716,-7940.6113,-7941.173,-7946.5625,-7958.378,-7952.5435,-7945.5737,-7957.0034,-7968.4775,-7956.596,-7950.136,-7969.5938,-7969.202,-7962.164,-7963.1304,-7953.7734,-7957.4683,-7961.7803,-7955.988,-7950.347,-7946.1777,-7948.0576
-7942.7114,-7940.1553,-7946.1494,-7951.0244,-7953.69,-7953.4233,-7955.411,-7944.3403,-7934.3677,-7940.0933,-7938.4204,-7944.0347,-7946.418,-7931.9683,-7936.299,-7945.0547,-7942.3975,-7939.5596,-7939.1143,-7946.692,-7940.747,-7933.387,-7946.4614,-7953.957,-7953.767,-7953.389,-7950.583,-7941.1436,-7938.5337,-7951.296,-7949.2295,-7946.205,-7945.213,-7935.7983,-7953.685,-7966.6836,-7954.48,-7953.101,-7957.294,-7958.282,-7950.1416,-7948.407,-7963.409,-7966.493,-7961.4136,-7965.056,-7969.392,-7957.0137,-7945.5225,-7955.636,-7951.6787,-7947.8706,-7960.0254,-7956.471,-7963.1587,-7967.8276,-7953.6914,-7949.0015,-7945.224,-7947.6934,-7947.0664,-7943.8213,-7955.189,-7958.704,-7957.446,-7963.8516,-7967.777,-7954.3086,-7944.6807,-7954.828,-7955.7686,-7959.6367,-7962.6094,-7956.698,-7963.971,-7960.221,-7952.555,-7953.716,-7955.5024,-7963.576,-7957.243,-7953.694,-7964.458,-7965.3726,-7960.7417,-7959.0967,-7963.725,-7954.4375,-7945.2417,-7954.0273,-7949.3955,-7952.7104,-7959.7285,-7956.138,-7967.343,-7966.3965,-7966.1235,-7970.187,-7956.3228,-7957.353,-7958.764,-7954.9375,-7960.2065,-7958.5884,-7957.9565,-7962.4263,-7966.344,-7958.664,-7953.5356,-7965.391,-7959.5063,-7950.3325,-7954.999,-7948.4844,-7951.9463,-7963.947,-7965.0815,-7969.042,-7968.2256,-7961.718,-7957.4634,-7952.3247,-7956.548,-7961.3623,-7953.087,-7957.44,-7964.3174,-7946.0776,-7941.8726,-7952.636,-7949.635,-7953.441,-7951.481,-7942.2925,-7952.068,-7957.7324,-7952.8003,-7951.616,-7955.184,-7956.1523,-7949.067,-7951.678,-7958.0605,-7959.9727,-7961.696,-7961.9336,-7965.8833,-7955.741,-7951.065,-7963.031,-7952.008,-7948.835,-7957.613,-7954.2163,-7961.757,-7957.151,-7950.295,-7953.537,-7947.4604,-7953.536,-7953.7686,-7948.734,-7953.022,-7951.959,-7952.5225,-7959.3877,-7973.255,-7964.5386,-7955.557,-7972.703,-7964.6963,-7958.3623,-7961.2954,-7947.089,-7953.6426,-7965.8926,-7967.2964,-7967.8027,-7962.35,-7963.3633,-7963.1763,-7958.4995,-7962.5796,-7962.826,-7953.4614,-7950.8496,-7950.815,-7935.1616,-7924.72,-7934.396,-7945.8438,-7954.027,-7945.7246,-7936.4062,-7948.5186,-7951.697,-7951.042,-7954.692,-7951.173,-7950.0063,-7946.098,-7946.3877,-7953.8857,-7954.849,-7949.922,-7955.559,-7966.6885,-7954.5874,-7948.096,-7959.2866,-7957.3306,-7955.267,-7948.3574,-7941.2485,-7951.257,-7950.5576,-7946.0186,-7946.3315,-7946.3345,-7951.905,-7946.3433,-7943.6294,-7950.9424,-7952.6445,-7954.049,-7959.6055,-7962.498,-7948.164,-7951.2134,-7973.772,-7963.7417,-7954.47,-7955.909,-7944.1636,-7949.453,-7952.8228,-7944.0186,-7944.793,-7946.0254,-7953.5,-7954.1475,-7945.9136,-7949.391,-7949.085,-7943.926,-7949.0415,-7954.095,-7941.386,-7935.249,-7946.9253,-7946.3784,-7946.6597,-7946.098,-7939.975,-7950.7803,-7955.3496,-7949.45,-7945.2217,-7944.3584,-7947.9253,-7942.095,-7939.533,-7944.955,-7946.426,-7944.757,-7950.013,-7957.2026,-7946.153,-7945.232,-7957.158,-7954.1006,-7956.143,-7952.4614,-7943.642,-7954.377,-7953.63,-7943.315,-7943.935,-7947.4873,-7950.9346,-7944.618,-7943.2583,-7951.5317,-7951.481,-7944.2847,-7942.834,-7952.317,-7945.154,-7940.0083,-7956.446,-7953.462,-7952.4966,-7957.8384,-7946.453,-7951.5576,-7956.3477,-7949.0986,-7949.3403,-7950.3345,-7955.7393,-7948.3325,-7937.924,-7950.2793,-7956.8276,-7950.0015,-7947.5645,-7952.0884,-7949.495,-7938.7495,-7941.162,-7948.4287,-7950.016,-7944.8804,-7938.5225,-7951.178,-7959.893,-7951.4604,-7948.43,-7951.6704,-7955.241,-7947.593,-7936.1665,-7936.8877,-7941.4766,-7945.105,-7947.315,-7946.017,-7938.9453,-7938.666,-7944.4404,-7938.047,-7938.403,-7942.556,-7938.929,-7946.9023,-7948.8887,-7944.1416,-7944.641,-7940.189,-7940.1533,-7936.85,-7930.32,-7931.1743,-7933.9004,-7939.2915,-7947.39,-7953.096,-7944.7554,-7949.6216,-7966.801,-7955.2114,-7950.873,-7952.5483,-7939.1396,-7943.027,-7945.6885,-7942.2964,-7942.794,-7939.304,-7942.5107,-7942.813,-7938.832,-7936.468,-7936.633,-7939.641,-7936.132,-7940.443,-7945.7603,-7934.7583,-7932.858,-7939.1377,-7940.249,-7942.573,-7939.3613,-7943.5405,-7950.3774,-7944.3013,-7940.722,-7935.586,-7943.2163,-7950.835,-7936.231,-7941.2646,-7949.6655,-7941.323,-7940.966,-7944.05,-7935.855,-7929.833,-7944.678,-7940.6294,-7936.6147,-7947.237,-7934.4214,-7941.148,-7947.331,-7940.7456,-7945.697,-7938.002,-7938.0474,-7935.8843,-7934.4536,-7942.44,-7944.188,-7949.763,-7950.9014,-7956.162,-7948.0767,-7942.9688,-7965.432,-7962.6533,-7959.514,-7961.0005,-7944.403,-7951.868,-7959.867,-7956.61,-7959.568,-7957.2437,-7957.536,-7955.2686,-7956.186,-7964.118,-7960.1313,-7946.551,-7938.7573,-7940.7163,-7931.1523,-7923.7007,-7933.1787,-7932.199,-7932.891,-7934.5425,-7931.5635,-7941.3403,-7938.944,-7933.278,-7936.5386,-7932.47,-7937.4404,-7940.1533,-7936.396,-7942.232,-7942.944,-7942.9985,-7954.274,-7958.0654,-7943.435,-7939.7314,-7951.4673,-7944.6753,-7939.3843,-7942.288,-7934.874,-7943.96,-7947.439,-7936.2393,-7937.6733,-7935.9927,-7935.896,-7933.4995,-7929.2417,-7933.8525,-7933.095,-7929.553,-7929.842,-7929.9546,-7915.038,-7914.801,-7938.174,-7936.6074,-7931.731,-7930.628,-7917.595,-7917.968,-7925.657,-7929.58,-7930.385,-7933.348,-7938.3174,-7934.976,-7933.3555,-7936.8257,-7935.816,-7929.386,-7929.66,-7932.501,-7917.3994,-7905.736,-7912.4253,-7916.1294,-7919.9443,-7920.071,-7917.606,-7928.849,-7931.2427,-7928.3535,-7933.0957,-7933.9287,-7934.264,-7925.9673,-7919.513,-7924.4434,-7930.4126,-7932.7754,-7930.9326,-7937.0464,-7932.177,-7924.509,-7935.5938,-7936.115,-7937.1626,-7939.591,-7933.683,-7937.9062,-7936.3223,-7935.598,-7939.201,-7937.2046,-7939.2964,-7933.483,-7927.853,-7929.9946,-7933.1006,-7936.7983,-7938.624,-7939.23,-7923.8564,-7921.0405,-7943.1377,-7942.0415,-7938.9805,-7942.5386,-7933.426,-7940.931,-7945.1665,-7936.6426,-7937.3433,-7934.6875,-7935.389,-7937.3623,-7932.473,-7928.996,-7926.2324,-7925.3667,-7927.1606,-7928.798,-7922.5303,-7917.74,-7920.4663,-7923.77,-7929.678,-7924.479,-7921.2324,-7925.503,-7919.132,-7925.2383,-7932.1,-7930.2676,-7936.4775,-7935.3145,-7934.2656,-7935.371,-7936.444,-7940.103,-7939.25,-7943.1636,-7939.296,-7932.252,-7938.32,-7938.2666,-7937.2983,-7936.7563,-7932.083,-7941.5034,-7944.086,-7934.924,-7933.4165,-7930.957,-7932.859,-7929.962,-7927.3496,-7942.2515,-7945.058,-7938.3955,-7945.451,-7950.645,-7939.5806,-7932.386,-7942.0425,-7943.7188,-7942.1274,-7943.647,-7937.52,-7944.751,-7951.596,-7944.44,-7942.5957,-7945.2153,-7948.1074,-7939.544,-7933.2583,-7939.8413,-7940.357,-7941.305,-7944.9043,-7945.947,-7935.865,-7926.3467,-7934.1797,-7934.531,-7934.4893,-7934.279,-7923.7974,-7928.836,-7933.1953,-7931.2646,-7933.0996,-7928.178,-7928.5312,-7928.262,-7923.4453,-7928.3745,-7934.2397,-7932.3745,-7936.4556,-7945.9517,-7935.293,-7925.0425,-7933.039,-7929.748,-7925.9785,-7922.5776,-7916.681,-7933.402,-7935.2065,-7916.803,-7913.117,-7916.1074,-7923.614,-7918.2646,-7910.8857,-7922.557,-7928.3374,-7931.986,-7937.322,-7938.54,-7933.426,-7929.2144,-7945.6772,-7952.0967,-7946.558,-7950.368,-7946.525,-7946.4404,-7947.314,-7943.5713,-7943.0396,-7938.91,-7939.4116,-7938.64,-7934.574,-7937.4136,-7942.8525,-7940.0244,-7938.203,-7947.9946,-7939.3594,-7928.8086,-7938.039,-7940.0874,-7948.3667,-7948.1763,-7936.6924,-7949.5347,-7954.053,-7948.0425,-7948.723,-7948.77,-7952.0576,-7944.313,-7939.6694,-7943.8364,-7946.5825,-7948.9004,-7947.111,-7948.827,-7940.3594,-7941.2573,-7954.837,-7946.5728,-7946.799,-7946.205,-7935.3164,-7944.2896,-7950.0767,-7953.174,-7953.776,-7948.687,-7948.621,-7940.236,-7945.291,-7956.036,-7949.4473,-7945.7466,-7949.831,-7953.0205,-7942.3823,-7941.628,-7956.896,-7955.438,-7949.6113,-7944.953,-7943.0347,-7948.8027,-7945.519,-7944.724,-7949.536,-7951.046,-7955.6763,-7950.548,-7940.127,-7944.257,-7949.404,-7945.5854,-7949.9897,-7955.334,-7939.0337,-7928.479,-7935.027,-7936.52,-7944.948,-7948.7896,-7942.654,-7947.905,-7949.427,-7946.913,-7947.5693,-7946.7764,-7940.594,-7935.4263,-7945.804,-7950.016,-7947.1406,-7943.2764,-7936.953,-7942.403,-7935.437,-7931.3135,-7941.3125,-7933.5186,-7933.2534,-7931.9717,-7922.1504,-7930.607,-7932.583,-7930.776,-7929.3047,-7929.6997,-7942.886,-7941.103,-7939.448,-7947.5044,-7949.7124,-7948.446,-7943.7715,-7947.266,-7939.9995,-7936.512,-7951.651,-7944.458,-7941.958,-7944.3223,-7935.846,-7946.121,-7946.1455,-7940.45,-7941.884,-7936.4834,-7941.3887,-7942.4653,-7940.655,-7946.0454,-7944.169,-7938.0044,-7941.795,-7949.2617,-7934.524,-7921.0625,-7924.2695,-7929.583,-7946.236,-7947.486,-7937.437,-7944.1377,-7939.4375,-7931.637,-7932.6494,-7931.8735,-7936.5615,-7934.7754,-7929.77,-7937.0903,-7946.4717,-7942.3477,-7942.507,-7954.2134,-7947.6787,-7945.4844,-7955.4907,-7948.484,-7945.6587,-7944.5464,-7937.203,-7945.738,-7951.997,-7945.295,-7943.353,-7950.0747,-7952.578,-7941.3433,-7935.8457,-7939.3105,-7939.302,-7939.4043,-7942.296,-7944.9,-7936.677,-7934.8906,-7945.909,-7945.5117,-7944.622,-7942.1074,-7935.595,-7937.8374,-7933.825,-7929.7847,-7929.5728,-7930.2217,-7936.599,-7935.942,-7938.3413,-7944.8145,-7943.733,-7937.979,-7936.714,-7944.311,-7935.799,-7928.555,-7937.519,-7938.893,-7947.5615,-7947.393,-7937.324,-7945.682,-7948.285,-7945.7783,-7944.5864,-7942.784,-7945.358,-7940.9443,-7935.459,-7934.815,-7941.1445,-7942.333,-7938.9214,-7940.7515,-7927.7705,-7924.9766,-7937.0205,-7934.15,-7938.283,-7936.9478,-7920.1445,-7924.6895,-7934.875,-7932.944,-7935.13,-7936.6636,-7935.4033,-7934.5166,-7931.1973,-7932.017,-7937.9023,-7939.56,-7937.9937,-7933.185,-7925.6274,-7933.2334,-7945.834,-7944.786,-7943.3154,-7937.2163,-7931.471,-7937.304,-7935.0254,-7933.525,-7936.67,-7930.852,-7928.903,-7934.5,-7942.596,-7944.5225,-7943.532,-7945.8735,-7946.2266,-7948.5703,-7938.51,-7929.2505,-7936.134,-7932.6206,-7936.079,-7940.0,-7933.9033,-7947.5503,-7952.6353,-7951.668,-7954.0854,-7947.4087,-7952.4062,-7944.702,-7936.9517,-7949.6177,-7950.4185,-7946.559,-7947.0864,-7954.645,-7952.5767,-7943.521,-7952.6064,-7947.173,-7940.9536,-7947.8623,-7943.1025,-7946.7188,-7948.9023,-7949.14,-7948.3994,-7936.457,-7940.641,-7944.2427,-7942.069,-7946.695,-7948.3267,-7946.8345,-7941.6543,-7945.883,-7944.936,-7942.1636,-7950.044,-7943.245,-7943.3374,-7944.307,-7934.2476,-7942.694,-7948.2324,-7944.1655,-7941.633,-7941.9565,-7946.8657,-7941.384,-7939.82,-7944.6694,-7941.1035,-7937.7324,-7941.385,-7947.0234,-7936.595,-7930.339,-7938.762,-7937.96,-7948.472,-7951.0405,-7934.433,-7938.285,-7940.143,-7935.1704,-7934.2114,-7934.4136,-7939.292,-7934.739,-7938.241,-7947.23,-7947.8164,-7946.389,-7944.462,-7950.748,-7944.1836,-7937.5938,-7947.3975,-7946.728,-7951.013,-7953.9717,-7947.369,-7956.1523,-7960.072,-7953.9937,-7950.8857,-7944.137,-7940.3335,-7942.104,-7944.925,-7945.97,-7948.4526,-7950.2764,-7952.0454,-7954.4497,-7940.387,-7940.107,-7958.3916,-7952.749,-7949.959,-7949.0874,-7942.965,-7956.0684,-7960.502,-7962.6675,-7967.712,-7968.7417,-7973.483,-7965.7065,-7967.103,-7970.1133,-7958.5605,-7944.743,-7934.881,-7944.995,-7937.484,-7923.8633,-7935.314,-7939.651,-7950.716,-7955.0396,-7945.9087,-7944.8716,-7930.8145,-7919.877,-7915.805,-7909.9893,-7914.974,-7914.497,-7906.483,-7905.232,-7910.445,-7907.4165,-7906.0664,-7916.2607,-7909.248,-7906.5464,-7918.34,-7907.616,-7903.675,-7905.2515,-7892.0186,-7902.795,-7910.733,-7903.848,-7908.609,-7903.503,-7900.086,-7899.9365,-7896.8315,-7904.315,-7905.9536,-7905.251,-7913.1953,-7921.5986,-7915.5337,-7907.2544,-7918.746,-7920.032,-7914.091,-7912.0513,-7902.9307,-7909.6626,-7915.25,-7914.1304,-7919.697,-7920.738,-7924.9775,-7920.9375,-7912.2256,-7911.494,-7913.5073,-7917.255,-7921.547,-7929.7837,-7920.923,-7910.943,-7913.8804,-7908.9517,-7918.796,-7919.068,-7909.999,-7922.5044,-7919.368,-7916.5894,-7919.3047,-7912.525,-7913.9375,-7911.8413,-7912.594,-7915.3613,-7916.5747,-7917.4883,-7918.528,-7928.1704,-7920.177,-7910.815,-7916.703,-7916.0024,-7922.4434,-7922.8774,-7914.0103,-7921.139,-7921.139,-7912.4297,-7910.9497,-7909.948,-7914.2866,-7909.963,-7903.615,-7914.3555,-7917.8843,-7916.461,-7923.2725,-7922.639,-7911.478,-7911.4814,-7924.621,-7926.4624,-7929.65,-7936.173,-7929.342,-7929.073,-7929.1494,-7920.458,-7919.4985,-7926.281,-7933.549,-7932.094,-7926.4634,-7929.652,-7939.3594,-7942.81,-7942.8735,-7942.511,-7932.079,-7931.3096,-7935.2886,-7930.859,-7940.555,-7940.005,-7932.865,-7942.4214,-7938.57,-7937.316,-7941.974,-7939.19,-7941.6694,-7937.833,-7937.7847,-7939.6562,-7937.6836,-7937.175,-7935.348,-7939.36,-7928.66,-7921.883,-7933.698,-7934.6177,-7940.0356,-7938.2373,-7924.8926,-7930.384,-7935.5234,-7932.433,-7930.789,-7936.9814,-7948.0347,-7942.5005,-7935.7266,-7938.5283,-7940.512,-7939.052,-7938.765,-7944.747,-7935.5474,-7932.9297,-7947.603,-7941.9873,-7939.3267,-7938.391,-7931.2383,-7940.9053,-7944.1685,-7941.854,-7938.0347,-7929.9688,-7929.783
-7928.7295,-7929.358,-7931.3345,-7934.982,-7938.263,-7940.7905,-7946.4697,-7936.1914,-7925.438,-7931.464,-7938.391,-7941.6753,-7937.91,-7937.06,-7942.6577,-7942.392,-7941.703,-7937.617,-7936.529,-7939.792,-7932.381,-7928.987,-7928.532,-7930.4844,-7936.396,-7938.2827,-7940.486,-7929.4136,-7928.4644,-7937.8643,-7926.8296,-7927.406,-7930.8135,-7922.1616,-7925.375,-7925.9106,-7925.2676,-7931.72,-7934.526,-7935.128,-7931.9355,-7926.175,-7922.6304,-7927.8354,-7933.7036,-7934.945,-7939.3716,-7926.672,-7916.301,-7930.8315,-7934.5435,-7931.5586,-7928.1304,-7922.496,-7930.641,-7932.8154,-7930.037,-7933.002,-7932.0366,-7930.345,-7927.2695,-7925.214,-7927.629,-7929.0166,-7924.655,-7931.3096,-7943.802,-7933.367,-7927.991,-7932.5503,-7927.84,-7934.292,-7933.888,-7924.0254,-7930.979,-7936.49,-7936.8413,-7936.162,-7934.2456,-7936.538,-7935.5674,-7935.597,-7937.0664,-7944.206,-7948.728,-7944.703,-7947.685,-7938.1484,-7935.079,-7950.2114,-7946.904,-7950.0986,-7953.684,-7937.4463,-7938.3477,-7948.195,-7948.2075,-7942.722,-7940.715,-7948.1562,-7948.253,-7945.3247,-7947.659,-7948.827,-7942.8384,-7939.7104,-7947.736,-7940.704,-7935.043,-7941.8423,-7939.6904,-7946.5703,-7944.006,-7934.5796,-7950.8184,-7958.7485,-7952.8403,-7948.287,-7944.3906,-7948.5796,-7948.9907,-7942.3604,-7937.907,-7940.0996,-7940.325,-7940.6562,-7945.747,-7937.065,-7931.7104,-7933.6084,-7930.0254,-7937.263,-7934.554,-7927.5137,-7935.4414,-7935.4243,-7940.114,-7943.808,-7937.1304,-7939.2866,-7939.852,-7939.12,-7940.1084,-7942.3623,-7940.982,-7937.9575,-7944.576,-7938.667,-7933.7783,-7942.712,-7942.272,-7945.416,-7947.3647,-7937.733,-7940.2666,-7951.6724,-7953.382,-7946.998,-7943.4644,-7947.4355,-7952.0264,-7953.9277,-7952.011,-7949.9473,-7950.715,-7952.427,-7953.087,-7942.032,-7941.427,-7956.7583,-7957.841,-7959.6284,-7955.2163,-7948.524,-7958.0176,-7954.0073,-7951.705,-7951.4897,-7950.1084,-7958.0,-7947.4253,-7944.8066,-7953.913,-7953.684,-7950.3086,-7946.957,-7955.946,-7951.4624,-7943.4385,-7946.811,-7941.784,-7950.085,-7951.485,-7945.228,-7954.6865,-7953.303,-7951.7197,-7946.876,-7940.0483,-7949.8916,-7949.346,-7942.5947,-7943.4707,-7946.2793,-7945.603,-7944.5117,-7946.6616,-7941.0615,-7946.692,-7954.8022,-7945.5527,-7946.9307,-7948.549,-7941.65,-7949.031,-7955.763,-7950.667,-7944.889,-7943.79,-7947.3735,-7944.3564,-7936.549,-7939.3174,-7947.5996,-7949.1846,-7953.446,-7954.697,-7937.5923,-7936.04,-7952.266,-7953.1787,-7951.1,-7945.935,-7942.246,-7943.453,-7935.664,-7939.2056,-7941.743,-7939.982,-7947.588,-7946.645,-7948.692,-7949.646,-7949.6426,-7953.6665,-7949.508,-7948.426,-7940.7104,-7936.4136,-7940.482,-7935.8047,-7941.3813,-7941.2666,-7934.546,-7942.404,-7941.9404,-7941.2007,-7941.448,-7935.2783,-7939.924,-7936.229,-7926.428,-7931.972,-7938.7305,-7936.8276,-7938.9146,-7947.1855,-7940.729,-7935.5044,-7941.845,-7936.9375,-7936.8613,-7935.271,-7923.9946,-7931.0786,-7940.8945,-7942.4824,-7941.171,-7937.897,-7939.355,-7933.6396,-7933.0938,-7944.781,-7949.9614,-7952.1216,-7955.4185,-7954.0,-7944.2866,-7942.437,-7952.492,-7953.1235,-7948.862,-7942.739,-7935.6616,-7940.333,-7946.1133,-7945.493,-7940.0923,-7938.728,-7946.4556,-7945.5034,-7942.066,-7945.8066,-7944.277,-7938.9717,-7943.4434,-7949.5625,-7942.501,-7942.074,-7941.17,-7931.412,-7943.661,-7946.1626,-7936.5527,-7949.643,-7949.777,-7943.9556,-7943.813,-7940.0923,-7943.4346,-7934.899,-7928.792,-7933.908,-7938.6577,-7942.168,-7937.049,-7933.3354,-7918.077,-7910.627,-7930.816,-7936.0586,-7938.027,-7943.6187,-7935.46,-7938.119,-7940.486,-7933.343,-7934.0825,-7940.675,-7948.028,-7948.497,-7947.925,-7949.564,-7951.86,-7955.719,-7962.809,-7970.507,-7959.769,-7959.53,-7973.978,-7968.6646,-7967.37,-7965.3447,-7961.023,-7969.009,-7965.94,-7962.928,-7961.7773,-7956.5034,-7956.5327,-7949.652,-7940.629,-7937.698,-7943.009,-7945.626,-7941.1064,-7943.4443,-7937.3813,-7934.6187,-7939.603,-7936.5645,-7948.207,-7946.797,-7936.1157,-7946.0117,-7938.3984,-7937.6777,-7946.102,-7943.8315,-7949.177,-7938.382,-7937.5273,-7946.9316,-7943.665,-7945.798,-7937.7725,-7941.0747,-7947.901,-7937.428,-7943.321,-7946.7524,-7938.7305,-7938.302,-7935.748,-7935.0493,-7939.0483,-7944.4897,-7950.195,-7946.6567,-7946.5015,-7947.417,-7942.405,-7951.8574,-7958.4507,-7952.1875,-7955.0977,-7961.512,-7949.117,-7942.751,-7963.0615,-7961.1704,-7955.4585,-7960.351,-7950.3716,-7956.584,-7960.122,-7957.0874,-7952.0786,-7947.3174,-7960.7295,-7955.195,-7949.4316,-7950.58,-7950.1724,-7957.9653,-7954.3213,-7950.0083,-7937.165,-7933.7954,-7939.811,-7934.445,-7944.8774,-7941.8433,-7931.6733,-7940.278,-7944.181,-7947.003,-7945.7656,-7945.6255,-7943.739,-7934.0825,-7930.4136,-7926.7397,-7932.996,-7941.256,-7943.375,-7947.619,-7937.9385,-7937.4087,-7949.1753,-7949.4463,-7956.3687,-7956.3213,-7944.204,-7948.0176,-7953.801,-7954.0664,-7951.8467,-7950.3506,-7958.6045,-7952.2627,-7943.1235,-7949.637,-7948.848,-7946.7466,-7948.917,-7951.364,-7946.016,-7940.0273,-7952.2983,-7955.851,-7949.0454,-7943.8716,-7937.3833,-7941.8105,-7938.913,-7934.083,-7942.0703,-7943.641,-7942.2695,-7942.254,-7941.3213,-7942.922,-7946.7285,-7946.548,-7947.1265,-7953.927,-7947.993,-7939.6396,-7938.7188,-7934.273,-7944.485,-7951.64,-7943.56,-7948.9033,-7950.383,-7944.5996,-7943.067,-7942.1694,-7946.227,-7941.638,-7936.322,-7939.8203,-7946.8677,-7948.5063,-7944.5347,-7951.603,-7946.4053,-7940.9697,-7951.0625,-7949.889,-7954.525,-7954.623,-7943.825,-7947.057,-7951.2603,-7953.6494,-7952.5723,-7948.882,-7952.0054,-7952.347,-7950.8525,-7950.7505,-7953.017,-7955.9526,-7959.3467,-7962.2803,-7945.7476,-7939.5625,-7960.0195,-7961.7695,-7957.098,-7951.0225,-7940.4214,-7951.3267,-7956.1396,-7956.048,-7958.4106,-7953.626,-7957.8696,-7954.0586,-7950.2603,-7959.431,-7960.858,-7952.414,-7951.959,-7958.536,-7943.124,-7931.799,-7935.773,-7933.0044,-7944.6895,-7946.6523,-7937.78,-7947.694,-7948.999,-7948.6743,-7951.858,-7950.2603,-7954.646,-7957.3403,-7962.6753,-7967.0815,-7971.943,-7974.1514,-7967.008,-7966.233,-7960.6265,-7960.9,-7961.5713,-7946.155,-7948.771,-7949.3604,-7940.785,-7948.133,-7945.384,-7938.6973,-7938.2046,-7931.436,-7928.8613,-7925.24,-7916.1846,-7916.1777,-7925.1123,-7929.4595,-7933.04,-7930.656,-7909.381,-7904.3794,-7916.3735,-7918.2134,-7922.0312,-7917.925,-7915.262,-7922.614,-7919.9775,-7919.4272,-7913.007,-7905.383,-7906.3125,-7895.64,-7891.018,-7893.0903,-7895.8975,-7904.3853,-7904.4014,-7903.7563,-7900.0503,-7896.3296,-7897.452,-7895.2954,-7908.121,-7913.238,-7901.595,-7909.896,-7919.401,-7921.0854,-7921.4814,-7914.721,-7911.297,-7905.1123,-7902.103,-7905.1333,-7904.176,-7902.94,-7902.1724,-7903.555,-7896.555,-7894.941,-7906.786,-7905.7407,-7909.9507,-7916.8003,-7908.347,-7908.994,-7913.1577,-7913.675,-7908.613,-7899.82,-7904.9766,-7905.7646,-7901.074,-7910.9424,-7923.773,-7920.483,-7918.853,-7929.192,-7918.3584,-7914.243,-7931.1133,-7935.8477,-7942.6934,-7934.187,-7917.6523,-7923.272,-7926.935,-7928.5757,-7924.735,-7923.605,-7930.768,-7926.191,-7926.7314,-7926.7896,-7925.482,-7928.129,-7926.6396,-7932.1816,-7925.834,-7919.6353,-7922.344,-7915.894,-7926.455,-7930.7646,-7921.613,-7929.6416,-7931.892,-7935.6323,-7938.9326,-7932.8584,-7937.1396,-7935.5063,-7931.8535,-7932.8184,-7932.0728,-7934.095,-7937.599,-7942.9385,-7934.5557,-7929.821,-7940.118,-7941.3467,-7943.772,-7938.3823,-7925.177,-7931.162,-7938.083,-7935.9995,-7935.5913,-7937.863,-7943.093,-7940.4253,-7931.7944,-7936.688,-7946.675,-7939.791,-7936.0347,-7941.7593,-7928.3555,-7923.456,-7937.442,-7939.3193,-7945.222,-7941.297,-7925.6675,-7928.937,-7922.878,-7917.33,-7927.202,-7932.793,-7937.5283,-7932.5215,-7927.54,-7930.386,-7935.627,-7939.4937,-7939.6626,-7941.153,-7925.486,-7916.6655,-7921.419,-7915.553,-7925.6567,-7926.0396,-7912.492,-7917.477,-7917.425,-7918.909,-7919.483,-7916.471,-7922.0786,-7915.6836,-7915.833,-7923.9517,-7919.221,-7915.3984,-7913.5327,-7914.905,-7914.3228,-7914.7476,-7923.793,-7921.9263,-7922.8516,-7928.266,-7920.5747,-7926.937,-7938.049,-7934.9136,-7935.004,-7935.677,-7933.2603,-7929.282,-7924.533,-7923.6763,-7925.7466,-7924.0845,-7925.151,-7929.5522,-7918.589,-7913.4497,-7922.428,-7926.6836,-7931.69,-7925.5557,-7919.999,-7926.482,-7927.5117,-7927.609,-7922.371,-7921.718,-7922.877,-7917.2134,-7920.889,-7921.215,-7926.587,-7931.628,-7931.484,-7938.4067,-7922.2847,-7912.0894,-7918.776,-7914.8535,-7926.5425,-7926.5137,-7913.912,-7922.9165,-7918.323,-7912.8345,-7916.175,-7910.1353,-7915.3984,-7915.3467,-7910.043,-7912.4478,-7913.1035,-7916.424,-7915.73,-7918.992,-7917.2476,-7910.5146,-7917.6084,-7914.5625,-7916.0415,-7921.9653,-7911.6016,-7916.561,-7927.3516,-7929.048,-7921.3896,-7912.142,-7920.981,-7917.633,-7908.2705,-7915.2256,-7919.296,-7920.909,-7925.2896,-7926.1426,-7916.346,-7914.428,-7921.614,-7922.8506,-7931.3677,-7932.609,-7927.211,-7934.79,-7941.0063,-7937.661,-7928.178,-7922.2046,-7919.528,-7916.817,-7914.998,-7912.762,-7917.0586,-7918.6587,-7921.823,-7924.9165,-7910.492,-7903.577,-7902.507,-7893.3394,-7898.4424,-7901.5254,-7893.197,-7895.641,-7898.492,-7899.715,-7897.9985,-7890.7446,-7893.2715,-7892.579,-7890.802,-7895.2407,-7898.5317,-7904.0405,-7904.906,-7903.311,-7894.57,-7892.822,-7899.078,-7885.8423,-7891.578,-7900.3755,-7885.55,-7892.069,-7895.339,-7888.091,-7887.9673,-7883.304,-7882.643,-7881.1177,-7880.777,-7882.178,-7887.007,-7891.761,-7892.612,-7901.2256,-7891.898,-7885.769,-7900.18,-7900.9165,-7907.347,-7904.7817,-7888.7085,-7892.8726,-7893.764,-7893.1367,-7894.6514,-7893.9385,-7901.71,-7901.868,-7899.516,-7899.576,-7900.574,-7900.1333,-7897.858,-7903.27,-7900.034,-7897.709,-7897.33,-7892.4834,-7901.6387,-7902.751,-7898.923,-7902.7837,-7902.6187,-7904.0723,-7898.471,-7895.662,-7897.441,-7892.9404,-7894.362,-7892.975,-7895.898,-7899.631,-7896.3027,-7900.672,-7892.552,-7888.556,-7898.216,-7891.219,-7893.846,-7900.5835,-7891.668,-7895.4863,-7897.705,-7894.0825,-7897.9795,-7894.2856,-7893.638,-7893.8857,-7890.9565,-7898.0654,-7904.231,-7904.774,-7905.641,-7904.0234,-7891.9536,-7890.673,-7906.1436,-7908.8745,-7908.697,-7902.767,-7893.6646,-7899.1914,-7899.345,-7901.215,-7902.261,-7898.4497,-7901.9365,-7900.033,-7900.8037,-7903.728,-7907.273,-7911.17,-7908.9814,-7909.9844,-7904.775,-7905.368,-7908.1846,-7899.646,-7910.3647,-7916.165,-7902.3037,-7903.2666,-7906.4966,-7910.0894,-7913.81,-7904.935,-7903.7056,-7905.481,-7904.2563,-7909.9727,-7912.87,-7909.782,-7908.958,-7910.939,-7905.914,-7907.566,-7913.8774,-7905.768,-7907.201,-7909.4536,-7900.7334,-7903.137,-7908.4043,-7913.3477,-7912.5474,-7911.1377,-7917.1416,-7912.2876,-7907.736,-7911.455,-7916.8184,-7919.157,-7920.013,-7921.5786,-7909.7705,-7906.267,-7915.8496,-7915.021,-7916.187,-7912.7295,-7904.5474,-7906.6284,-7905.7295,-7905.283,-7905.2725,-7906.5483,-7914.4575,-7911.442,-7907.3423,-7912.2627,-7917.239,-7917.6587,-7916.038,-7914.0845,-7903.619,-7905.2803,-7912.3076,-7907.4023,-7917.435,-7918.6895,-7906.113,-7914.351,-7917.6978,-7912.7153,-7913.8096,-7910.7485,-7909.5215,-7909.257,-7906.7524,-7905.435,-7911.447,-7915.2124,-7912.545,-7916.3193,-7907.2993,-7901.643,-7911.8193,-7909.4863,-7913.345,-7912.39,-7900.4517,-7909.675,-7916.673,-7915.691,-7916.363,-7914.036,-7915.0195,-7908.8613,-7905.662,-7909.607,-7908.91,-7906.6567,-7905.4155,-7908.948,-7896.427,-7888.3647,-7904.6426,-7906.8965,-7909.0127,-7904.8374,-7893.6333,-7904.943,-7906.918,-7908.3867,-7909.93,-7900.175,-7903.7207,-7902.3506,-7897.9277,-7898.736,-7905.1387,-7914.4883,-7914.0186,-7915.7197,-7906.4277,-7899.236,-7902.5415,-7895.623,-7905.9404,-7908.8604,-7893.568,-7899.1274,-7901.5693,-7900.318,-7902.96,-7901.996,-7906.618,-7902.143,-7895.4175,-7896.157,-7897.585,-7894.614,-7893.4136,-7900.007,-7890.3374,-7886.79,-7895.4346,-7892.536,-7901.3525,-7904.1167,-7896.985,-7897.303,-7897.7134,-7906.9414,-7905.4272,-7901.3916,-7908.2173,-7906.2183,-7910.0044,-7913.254,-7914.7305,-7917.111,-7911.699,-7916.268,-7906.2476,-7892.924,-7906.6494,-7911.046,-7912.5176,-7912.8433,-7906.1973,-7911.9087,-7912.9756,-7914.1924,-7913.4224,-7908.6274,-7913.4443,-7908.052,-7900.7407,-7902.166,-7908.235,-7910.3604,-7905.555,-7911.592,-7910.225,-7908.184,-7913.2544,-7903.342,-7910.1177,-7918.603,-7903.8657,-7908.2656,-7915.776,-7909.483,-7906.8438,-7902.485,-7905.6533,-7906.015,-7895.7803,-7896.2583,-7900.5054,-7899.651,-7902.996,-7905.6943,-7899.3096,-7903.4697,-7913.192,-7904.497,-7901.948,-7900.461,-7889.226,-7891.3794,-7896.6294,-7903.9946,-7902.783,-7895.5386,-7901.8105,-7897.5513,-7893.602,-7897.079,-7896.8647,-7896.6895,-7892.6445,-7892.5386,-7886.2593,-7887.934,-7905.653,-7910.1377,-7915.226,-7911.0537,-7896.7666,-7903.4565,-7905.084,-7901.5254,-7901.0063,-7895.824,-7899.6494
-7895.414,-7892.358,-7898.644,-7895.432,-7896.08,-7903.229,-7905.954,-7895.387,-7892.685,-7898.6714,-7890.0156,-7900.81,-7906.9517,-7887.817,-7893.9897,-7902.406,-7900.791,-7902.1245,-7898.2607,-7901.1997,-7896.0723,-7892.8804,-7903.6284,-7903.8687,-7904.214,-7910.233,-7909.11,-7898.804,-7895.453,-7899.019,-7894.358,-7901.9585,-7906.3286,-7896.0376,-7901.5425,-7907.6045,-7907.0444,-7902.532,-7901.0444,-7913.456,-7917.7896,-7920.9116,-7921.4062,-7916.233,-7915.931,-7912.522,-7915.861,-7909.637,-7905.3677,-7916.5356,-7909.615,-7910.0317,-7913.9854,-7908.197,-7916.369,-7919.4985,-7921.6797,-7922.3306,-7920.7217,-7927.1875,-7921.7393,-7919.09,-7922.6797,-7925.6387,-7929.0483,-7926.9946,-7931.6255,-7925.075,-7916.2583,-7917.2036,-7907.19,-7912.041,-7915.147,-7901.945,-7910.078,-7914.7246,-7910.202,-7912.019,-7906.9355,-7910.4995,-7911.5835,-7902.7983,-7905.2163,-7909.5605,-7909.916,-7912.053,-7916.262,-7910.802,-7908.541,-7918.777,-7913.8564,-7918.716,-7930.6,-7915.912,-7915.6895,-7928.53,-7925.05,-7918.7974,-7916.204,-7918.0283,-7914.078,-7908.517,-7915.0596,-7920.1465,-7920.53,-7924.4224,-7923.7153,-7916.1167,-7919.95,-7932.0874,-7933.6006,-7933.3286,-7930.578,-7926.344,-7931.9375,-7935.0796,-7937.459,-7934.3604,-7928.2964,-7930.4126,-7926.7964,-7925.5005,-7923.325,-7925.4966,-7933.8604,-7930.875,-7930.3154,-7920.2695,-7918.5938,-7929.6533,-7925.3296,-7935.5767,-7930.4766,-7912.466,-7924.6616,-7924.6562,-7922.6704,-7927.984,-7923.4243,-7928.4253,-7926.0513,-7918.5264,-7920.3374,-7925.272,-7931.01,-7931.595,-7936.5386,-7939.116,-7935.802,-7934.772,-7931.1826,-7932.0435,-7927.581,-7918.195,-7922.125,-7928.667,-7927.157,-7920.623,-7919.9204,-7922.255,-7917.6733,-7914.1084,-7916.1904,-7920.9795,-7921.8706,-7926.4106,-7931.886,-7922.8823,-7919.265,-7925.6035,-7927.892,-7932.1196,-7933.653,-7926.7627,-7926.618,-7937.0195,-7940.3574,-7937.331,-7936.032,-7936.4946,-7941.3516,-7936.816,-7930.6426,-7936.308,-7931.328,-7930.1475,-7935.4663,-7925.452,-7928.0396,-7930.5874,-7921.47,-7932.24,-7934.0527,-7925.5464,-7937.3423,-7946.4653,-7948.334,-7947.756,-7950.066,-7956.2593,-7946.4053,-7940.702,-7943.8467,-7944.0015,-7945.9155,-7942.536,-7942.3384,-7935.6304,-7927.7236,-7931.072,-7924.4966,-7927.891,-7931.902,-7921.387,-7928.9453,-7935.021,-7931.273,-7924.4805,-7912.204,-7915.34,-7913.693,-7908.8125,-7921.0513,-7924.9346,-7923.981,-7930.8223,-7933.0576,-7925.137,-7919.529,-7924.739,-7925.5884,-7924.9546,-7923.02,-7915.525,-7922.5605,-7927.8647,-7918.775,-7915.22,-7919.8755,-7924.4624,-7920.0063,-7915.3467,-7917.251,-7920.663,-7919.352,-7918.235,-7921.8203,-7912.5713,-7912.646,-7919.911,-7912.2285,-7919.03,-7918.517,-7907.625,-7913.9526,-7917.1426,-7918.758,-7916.8525,-7916.6196,-7917.318,-7908.305,-7911.3755,-7912.618,-7915.785,-7924.0903,-7921.2573,-7926.6475,-7919.642,-7910.601,-7921.099,-7919.128,-7921.055,-7925.8945,-7917.106,-7921.2183,-7929.0454,-7925.4463,-7919.5166,-7918.6,-7921.241,-7914.7803,-7910.504,-7915.7944,-7922.8745,-7927.6846,-7924.3643,-7923.5894,-7919.114,-7915.4683,-7923.6753,-7924.4053,-7929.168,-7927.495,-7915.27,-7920.7163,-7925.194,-7928.8755,-7928.0356,-7920.9067,-7923.2515,-7917.9873,-7916.991,-7923.358,-7931.0425,-7936.7886,-7933.8477,-7938.5537,-7932.249,-7926.521,-7931.638,-7919.355,-7918.734,-7928.998,-7927.4087,-7926.404,-7926.1875,-7931.03,-7930.5684,-7926.104,-7931.522,-7925.0977,-7917.714,-7921.2334,-7920.5225,-7920.9326,-7924.915,-7929.4873,-7917.1987,-7911.803,-7925.1426,-7917.6943,-7920.472,-7925.5693,-7912.468,-7914.889,-7920.3525,-7929.855,-7929.15,-7920.7505,-7927.379,-7922.528,-7920.7524,-7922.8086,-7920.557,-7929.807,-7933.4375,-7931.0796,-7925.345,-7921.7744,-7929.5796,-7935.7485,-7939.2173,-7930.129,-7916.6978,-7922.8755,-7930.4097,-7933.6353,-7934.0415,-7930.752,-7938.467,-7944.563,-7940.4385,-7937.6724,-7938.022,-7933.3833,-7933.9224,-7941.428,-7931.854,-7928.646,-7934.197,-7923.813,-7928.712,-7935.717,-7923.533,-7928.531,-7938.952,-7935.1216,-7932.049,-7929.8125,-7933.8857,-7935.408,-7925.8945,-7928.7036,-7940.198,-7942.7046,-7943.358,-7943.65,-7933.6074,-7930.732,-7938.81,-7930.627,-7931.7554,-7941.752,-7932.2373,-7932.376,-7936.699,-7937.055,-7934.86,-7927.4893,-7934.122,-7932.9785,-7928.61,-7931.961,-7932.0034,-7933.9224,-7925.847,-7927.4893,-7935.233,-7928.8936,-7933.247,-7941.733,-7944.6714,-7943.8457,-7937.1436,-7935.1523,-7934.581,-7939.06,-7942.0103,-7931.835,-7936.871,-7943.5347,-7934.4004,-7937.253,-7939.2876,-7935.359,-7937.519,-7942.076,-7935.9497,-7924.534,-7932.6562,-7929.706,-7929.367,-7939.386,-7925.268,-7929.7544,-7934.8,-7930.9106,-7936.1626,-7930.5576,-7942.402,-7943.004,-7926.6294,-7928.6343,-7933.1787,-7935.923,-7939.2163,-7947.454,-7939.378,-7930.848,-7939.3696,-7934.9395,-7937.225,-7938.2583,-7927.211,-7930.2983,-7936.6484,-7933.116,-7925.727,-7927.1694,-7929.25,-7926.3223,-7923.886,-7924.2856,-7936.4414,-7937.607,-7935.2373,-7942.646,-7927.6904,-7922.481,-7939.4565,-7941.712,-7946.7705,-7943.9146,-7931.4966,-7941.1455,-7946.2695,-7944.4014,-7942.2603,-7936.0957,-7942.704,-7941.469,-7935.331,-7938.797,-7941.6035,-7939.918,-7934.92,-7932.272,-7921.3003,-7924.5723,-7930.4497,-7911.421,-7923.859,-7938.89,-7926.895,-7936.752,-7939.5635,-7932.091,-7935.532,-7932.2793,-7930.2783,-7930.033,-7926.7373,-7926.5264,-7929.06,-7925.3706,-7924.9966,-7927.603,-7914.3027,-7916.0557,-7928.1323,-7922.7407,-7926.1685,-7928.7188,-7923.28,-7923.9756,-7920.8926,-7925.873,-7929.149,-7920.1953,-7922.366,-7924.986,-7921.296,-7920.179,-7924.221,-7929.4087,-7928.644,-7927.6655,-7918.8667,-7917.409,-7928.235,-7928.838,-7932.997,-7928.9795,-7913.93,-7914.2866,-7915.948,-7915.995,-7916.8223,-7916.8403,-7925.6704,-7927.339,-7921.875,-7922.717,-7927.9487,-7934.753,-7937.0283,-7936.725,-7930.4395,-7929.536,-7930.349,-7917.5376,-7924.469,-7928.638,-7913.712,-7918.4824,-7922.34,-7924.642,-7924.6006,-7912.655,-7915.0396,-7912.0356,-7902.161,-7901.5884,-7900.5635,-7905.6055,-7912.363,-7911.5376,-7900.9585,-7896.873,-7903.9966,-7903.578,-7911.261,-7916.156,-7903.557,-7906.103,-7913.754,-7908.0103,-7899.293,-7897.794,-7905.481,-7899.663,-7889.197,-7897.688,-7911.527,-7915.6123,-7910.21,-7904.024,-7894.657,-7890.475,-7899.6504,-7907.034,-7913.901,-7912.528,-7903.073,-7902.9023,-7900.5034,-7896.984,-7894.3594,-7890.633,-7890.99,-7889.6626,-7897.4243,-7900.78,-7897.077,-7902.784,-7900.185,-7897.9805,-7892.032,-7886.9526,-7892.876,-7882.208,-7889.185,-7903.01,-7889.28,-7890.327,-7898.6064,-7909.384,-7917.2446,-7908.7314,-7915.46,-7915.4756,-7903.57,-7904.4624,-7906.79,-7908.4175,-7905.9614,-7904.585,-7903.46,-7907.3804,-7917.92,-7911.559,-7911.227,-7914.531,-7902.3193,-7905.198,-7910.4263,-7906.048,-7901.8867,-7899.2183,-7906.4893,-7903.454,-7895.376,-7899.0957,-7905.4883,-7911.6055,-7908.4497,-7900.009,-7890.8564,-7893.719,-7907.884,-7908.9614,-7912.136,-7914.049,-7906.332,-7906.187,-7909.337,-7909.026,-7900.1055,-7898.808,-7905.736,-7903.7075,-7904.7363,-7906.3726,-7909.7783,-7912.753,-7914.0054,-7916.9644,-7903.52,-7900.7734,-7910.917,-7903.792,-7908.7627,-7913.245,-7900.6924,-7908.0903,-7916.1816,-7914.1807,-7915.4756,-7909.872,-7910.941,-7911.166,-7908.225,-7910.6045,-7910.326,-7915.9214,-7919.2,-7920.3276,-7915.804,-7910.9956,-7921.0244,-7918.095,-7917.1865,-7923.649,-7917.7383,-7919.679,-7916.5605,-7911.227,-7920.3813,-7930.469,-7933.7144,-7924.3926,-7916.0693,-7915.393,-7919.6714,-7924.712,-7925.4585,-7929.631,-7922.1733,-7912.0093,-7917.8125,-7925.7026,-7936.353,-7934.586,-7925.3247,-7937.3145,-7941.793,-7928.913,-7921.7334,-7923.877,-7928.883,-7924.7217,-7922.345,-7923.9697,-7929.507,-7937.977,-7933.019,-7930.32,-7926.3257,-7924.49,-7932.2896,-7922.9473,-7924.94,-7934.886,-7924.227,-7927.9565,-7932.483,-7926.7734,-7927.3975,-7922.1934,-7925.216,-7927.1914,-7921.8154,-7922.2607,-7919.631,-7925.0107,-7930.018,-7930.7603,-7928.657,-7921.9644,-7925.707,-7922.184,-7922.973,-7925.9214,-7916.079,-7920.4756,-7920.4756,-7917.2573,-7916.491,-7910.5737,-7916.9062,-7917.5215,-7915.021,-7916.065,-7916.999,-7918.096,-7912.3022,-7910.0005,-7899.874,-7898.7437,-7910.266,-7907.382,-7915.974,-7919.1304,-7906.231,-7910.1104,-7914.195,-7914.3545,-7913.3394,-7906.723,-7906.528,-7903.5156,-7900.2495,-7906.255,-7912.356,-7910.846,-7908.1484,-7912.0444,-7904.7734,-7900.555,-7909.4404,-7907.096,-7917.519,-7928.8613,-7919.1807,-7924.2983,-7934.8027,-7938.687,-7934.478,-7921.344,-7923.072,-7928.1484,-7926.8467,-7921.994,-7922.431,-7928.1274,-7925.4355,-7927.777,-7918.985,-7911.0947,-7916.176,-7906.2305,-7909.2617,-7910.336,-7901.312,-7906.641,-7902.7583,-7904.922,-7906.2275,-7902.1006,-7909.4487,-7904.0947,-7904.8394,-7911.8774,-7911.284,-7918.354,-7925.5063,-7928.188,-7916.57,-7907.8286,-7910.314,-7904.4004,-7913.373,-7918.684,-7901.6733,-7904.6123,-7914.8726,-7912.0034,-7910.2383,-7909.245,-7915.2573,-7918.9863,-7913.2085,-7911.5244,-7913.1606,-7918.873,-7923.4385,-7918.625,-7910.5796,-7912.5933,-7916.798,-7908.824,-7916.941,-7928.2227,-7916.7183,-7916.1724,-7920.143,-7917.4746,-7917.774,-7917.547,-7921.639,-7921.681,-7920.742,-7921.56,-7922.5103,-7924.39,-7922.2705,-7923.9404,-7916.5825,-7914.4805,-7926.754,-7924.1445,-7927.2056,-7930.326,-7921.908,-7925.7065,-7928.3877,-7930.2686,-7928.22,-7922.247,-7927.629,-7924.3896,-7917.099,-7917.1655,-7924.9443,-7932.063,-7928.445,-7935.604,-7933.9834,-7924.744,-7934.117,-7937.7314,-7944.102,-7943.43,-7926.3384,-7933.3115,-7944.0586,-7939.8267,-7934.8174,-7928.0054,-7927.798,-7927.8857,-7923.3535,-7922.927,-7928.228,-7931.778,-7926.499,-7922.1035,-7917.7993,-7915.709,-7917.6265,-7910.256,-7916.501,-7931.458,-7922.676,-7919.205,-7928.8003,-7930.4155,-7924.9243,-7917.7,-7916.2974,-7915.16,-7916.2964,-7916.183,-7917.234,-7924.9688,-7925.6104,-7923.904,-7915.058,-7915.262,-7922.4365,-7910.914,-7914.3916,-7914.2803,-7898.0913,-7899.8413,-7903.3994,-7910.3374,-7910.7046,-7902.9116,-7907.7466,-7905.714,-7905.5684,-7908.774,-7912.689,-7923.1226,-7920.1055,-7917.1855,-7915.424,-7917.2324,-7925.1807,-7922.4243,-7932.198,-7931.495,-7915.3384,-7923.533,-7929.3438,-7928.2485,-7923.842,-7916.476,-7922.1006,-7921.179,-7920.0635,-7919.8564,-7916.598,-7921.6553,-7921.2344,-7918.945,-7910.9614,-7908.556,-7912.788,-7895.6836,-7897.7456,-7909.7886,-7898.6895,-7905.114,-7916.2007,-7919.8,-7924.071,-7916.6978,-7916.3467,-7916.2236,-7910.805,-7914.0815,-7917.977,-7918.3276,-7914.061,-7913.129,-7911.0728,-7911.6084,-7921.246,-7918.6343,-7920.0947,-7922.026,-7910.5063,-7915.5737,-7924.364,-7924.2686,-7922.7744,-7922.0215,-7927.1333,-7928.1123,-7929.018,-7926.619,-7928.0156,-7935.2065,-7930.1724,-7928.2793,-7921.1367,-7920.271,-7934.1025,-7930.536,-7937.102,-7941.634,-7927.0684,-7930.61,-7930.0923,-7925.717,-7927.4893,-7924.163,-7934.2456,-7934.5356,-7926.123,-7933.256,-7932.9785,-7931.8203,-7940.6553,-7943.0337,-7934.9,-7932.174,-7933.036,-7922.226,-7927.4746,-7938.2974,-7925.39,-7927.1875,-7935.0815,-7930.019,-7930.586,-7927.247,-7931.928,-7938.2983,-7933.3135,-7934.5195,-7935.0903,-7936.1636,-7935.5586,-7930.0317,-7927.5835,-7930.6846,-7938.3306,-7936.205,-7938.4233,-7942.0967,-7930.9136,-7932.3804,-7940.3794,-7939.1245,-7934.1865,-7929.6426,-7930.5684,-7928.0674,-7926.8696,-7929.3257,-7931.6626,-7933.941,-7936.651,-7939.4355,-7927.4688,-7929.238,-7942.539,-7935.559,-7944.538,-7947.7886,-7934.393,-7939.222,-7937.371,-7942.627,-7948.041,-7939.3813,-7941.7905,-7933.338,-7927.765,-7931.5654,-7936.098,-7945.908,-7938.8247,-7937.9062,-7938.085,-7930.086,-7930.3516,-7921.1265,-7928.476,-7939.151,-7926.975,-7930.016,-7933.4717,-7930.538,-7931.2188,-7924.907,-7930.5127,-7934.9795,-7929.2935,-7930.5044,-7931.567,-7931.812,-7933.2646,-7935.6753,-7931.2197,-7930.947,-7939.7705,-7933.7754,-7935.4106,-7939.47,-7928.5,-7933.39,-7939.358,-7937.132,-7936.7534,-7932.8247,-7937.651,-7945.0576,-7942.813,-7937.1274,-7938.2954,-7942.795,-7942.9253,-7942.671,-7936.1606,-7930.7153,-7930.9106,-7932.0864,-7941.7275,-7938.653,-7929.112,-7939.4688,-7941.9497,-7940.2744,-7943.4966,-7937.409,-7938.829,-7937.1616,-7931.5435,-7931.37,-7930.237,-7933.295,-7931.0615,-7928.5547,-7922.021,-7923.795,-7932.911,-7913.258,-7912.3477,-7926.904,-7916.976,-7917.547,-7921.5474,-7923.4644,-7926.2847,-7925.494,-7934.7427,-7938.457,-7934.491,-7929.731,-7930.272,-7935.844,-7932.0527,-7932.167,-7928.3755,-7926.115,-7939.768,-7937.0083,-7936.836,-7943.949,-7930.91,-7928.9424,-7930.5117,-7923.7007,-7918.671,-7907.5815,-7912.975,-7921.2256,-7913.6387,-7912.781,-7918.0933,-7921.3647,-7924.639,-7928.925,-7923.0386,-7920.1187,-7926.8076,-7923.2466,-7927.7217,-7928.898,-7916.551,-7921.443,-7924.774,-7923.311,-7928.3,-7926.4053,-7926.88
-7926.5527,-7927.127,-7931.856,-7929.917,-7930.505,-7934.9526,-7935.031,-7926.4385,-7928.836,-7935.2896,-7921.008,-7927.99,-7939.882,-7927.237,-7930.807,-7935.7515,-7934.147,-7933.431,-7927.7866,-7930.138,-7928.223,-7925.9062,-7929.633,-7933.885,-7935.0527,-7928.2095,-7929.0103,-7924.7236,-7921.191,-7931.144,-7927.688,-7927.7305,-7930.598,-7922.5513,-7924.7544,-7927.477,-7928.0156,-7927.1094,-7927.3833,-7936.7407,-7930.6763,-7921.463,-7924.2734,-7925.0303,-7927.4956,-7927.95,-7931.2754,-7932.5522,-7928.4287,-7932.3486,-7929.31,-7934.406,-7942.963,-7931.0576,-7931.757,-7935.29,-7933.69,-7931.5186,-7922.4897,-7929.805,-7929.026,-7924.012,-7933.0195,-7935.324,-7940.761,-7947.747,-7950.455,-7945.5884,-7947.3843,-7950.1577,-7932.864,-7938.3213,-7945.2856,-7930.929,-7933.881,-7933.7437,-7931.3174,-7931.123,-7924.2188,-7925.328,-7920.3784,-7913.8496,-7911.0103,-7911.666,-7918.2046,-7916.8584,-7915.515,-7908.1123,-7906.116,-7913.3857,-7904.2466,-7908.4834,-7919.203,-7912.928,-7916.692,-7922.553,-7925.0503,-7927.412,-7923.6675,-7926.196,-7925.4023,-7919.3945,-7921.7295,-7922.142,-7918.969,-7919.5225,-7917.0767,-7908.2524,-7909.288,-7914.965,-7909.1104,-7919.124,-7928.0312,-7909.047,-7911.087,-7921.9688,-7915.8247,-7914.7593,-7914.36,-7922.968,-7929.615,-7925.437,-7926.416,-7930.8066,-7937.1206,-7935.7314,-7932.4243,-7929.3228,-7930.176,-7932.8477,-7920.2593,-7921.888,-7928.19,-7921.351,-7926.474,-7931.713,-7930.25,-7923.532,-7921.868,-7927.077,-7924.303,-7925.361,-7921.857,-7923.9644,-7933.3965,-7929.1514,-7930.631,-7924.2275,-7917.5254,-7921.2314,-7914.4873,-7927.546,-7937.7017,-7926.623,-7931.4517,-7934.5635,-7935.7666,-7936.142,-7926.985,-7927.224,-7922.7627,-7919.527,-7926.228,-7923.204,-7921.783,-7927.0244,-7926.4062,-7917.255,-7915.2383,-7923.325,-7927.1733,-7936.776,-7935.0425,-7919.263,-7925.2363,-7930.219,-7929.0576,-7934.0557,-7932.3545,-7938.689,-7936.769,-7927.1655,-7930.6147,-7930.991,-7937.4116,-7941.3545,-7933.6997,-7931.8066,-7933.0547,-7930.708,-7919.207,-7919.729,-7928.6265,-7918.358,-7915.4185,-7924.529,-7927.4927,-7927.7666,-7924.026,-7919.862,-7918.129,-7917.365,-7920.356,-7929.719,-7930.1743,-7925.6606,-7929.6016,-7922.581,-7926.2095,-7938.426,-7928.771,-7931.6064,-7937.7036,-7927.9995,-7927.164,-7929.5493,-7933.0835,-7935.318,-7932.2266,-7932.7446,-7931.4614,-7927.978,-7926.176,-7930.4575,-7933.4233,-7930.89,-7932.768,-7923.7505,-7920.5127,-7927.0454,-7920.3604,-7935.9893,-7944.4546,-7924.5376,-7929.875,-7935.574,-7934.2095,-7934.055,-7927.4575,-7936.526,-7933.177,-7924.1665,-7929.1,-7929.265,-7932.9043,-7929.5605,-7925.1045,-7924.069,-7926.798,-7938.5684,-7928.7803,-7927.5547,-7943.2314,-7934.8003,-7930.9683,-7936.3506,-7934.373,-7931.9067,-7928.016,-7929.538,-7931.392,-7928.397,-7923.9707,-7927.1733,-7935.146,-7936.8726,-7939.0693,-7931.869,-7928.5957,-7933.595,-7928.0815,-7932.3164,-7929.19,-7917.466,-7921.683,-7920.4204,-7921.0825,-7926.916,-7929.5693,-7935.027,-7936.694,-7934.908,-7927.853,-7930.2866,-7938.156,-7935.251,-7936.726,-7929.2393,-7923.2344,-7933.5703,-7938.014,-7947.272,-7947.1553,-7934.392,-7940.845,-7947.5625,-7950.3174,-7949.3975,-7938.271,-7940.2817,-7941.991,-7934.6914,-7931.1636,-7931.351,-7935.667,-7939.3135,-7940.0405,-7929.834,-7929.6953,-7937.7544,-7922.965,-7923.2456,-7930.2617,-7916.3228,-7920.2676,-7933.1104,-7936.588,-7933.8984,-7928.676,-7937.129,-7937.1675,-7924.5464,-7927.778,-7935.488,-7934.9844,-7933.06,-7930.709,-7926.8394,-7930.1445,-7937.549,-7934.825,-7934.4346,-7933.102,-7926.7046,-7930.198,-7929.8145,-7929.5845,-7931.6836,-7929.859,-7932.706,-7928.7363,-7924.37,-7925.051,-7932.294,-7940.1753,-7936.843,-7940.7573,-7939.2334,-7939.0303,-7948.742,-7947.7866,-7959.043,-7958.01,-7939.7603,-7946.3643,-7948.7256,-7944.812,-7945.067,-7943.0024,-7951.62,-7950.9277,-7946.3843,-7950.993,-7951.7456,-7952.824,-7951.8994,-7949.3086,-7942.2896,-7939.853,-7945.029,-7939.1714,-7943.489,-7951.3594,-7941.821,-7939.3403,-7941.313,-7942.8096,-7944.4434,-7940.2827,-7941.2295,-7943.284,-7946.545,-7947.311,-7945.3364,-7954.776,-7960.061,-7955.529,-7947.7803,-7946.1055,-7950.116,-7944.5923,-7950.26,-7956.4814,-7944.205,-7941.391,-7945.967,-7947.5996,-7946.3594,-7941.741,-7938.3945,-7937.406,-7936.7505,-7933.4634,-7939.275,-7942.3115,-7940.666,-7944.2275,-7933.512,-7934.26,-7944.1255,-7940.2915,-7949.993,-7951.3345,-7936.042,-7935.098,-7937.1914,-7935.405,-7934.3247,-7931.113,-7930.3916,-7932.9907,-7932.9795,-7930.7886,-7934.305,-7934.9834,-7928.8306,-7933.114,-7940.026,-7936.6123,-7935.82,-7936.875,-7932.204,-7936.2793,-7939.6167,-7932.1577,-7933.6553,-7936.2363,-7930.303,-7922.69,-7923.816,-7926.0425,-7916.3896,-7914.9907,-7917.4116,-7913.6387,-7910.3174,-7912.963,-7911.4683,-7904.352,-7915.9175,-7913.341,-7911.5,-7924.812,-7910.984,-7910.1045,-7908.6143,-7899.459,-7909.63,-7906.6104,-7911.227,-7920.0938,-7917.2896,-7919.6313,-7925.443,-7928.8076,-7925.1865,-7922.25,-7912.8423,-7911.865,-7917.321,-7912.1494,-7926.2046,-7934.651,-7919.4434,-7919.8276,-7929.7925,-7930.174,-7927.8115,-7927.13,-7926.6016,-7927.209,-7929.434,-7930.071,-7930.122,-7930.259,-7929.048,-7924.5835,-7915.0107,-7918.716,-7925.209,-7911.749,-7912.975,-7921.5225,-7914.9673,-7919.464,-7928.75,-7932.804,-7926.0405,-7915.6387,-7924.0996,-7930.051,-7923.173,-7918.55,-7921.2847,-7925.9736,-7923.097,-7917.434,-7915.7886,-7924.2856,-7928.916,-7922.3096,-7929.506,-7934.0737,-7922.3545,-7921.983,-7928.1445,-7931.498,-7931.764,-7927.077,-7928.911,-7930.6387,-7926.603,-7922.966,-7924.5967,-7931.22,-7931.654,-7925.0503,-7916.4453,-7917.0186,-7923.0415,-7926.7817,-7939.2485,-7942.39,-7935.3857,-7938.8604,-7940.9873,-7939.7993,-7935.8076,-7927.24,-7924.9434,-7925.5166,-7922.3286,-7923.4775,-7928.9673,-7925.75,-7924.2417,-7926.3164,-7919.7837,-7920.103,-7920.9253,-7913.7363,-7913.933,-7915.014,-7914.077,-7914.581,-7915.1084,-7920.3604,-7923.9233,-7926.173,-7930.864,-7930.8125,-7927.7334,-7924.4004,-7927.3643,-7931.9756,-7929.6323,-7928.2646,-7922.1226,-7920.867,-7925.028,-7914.8984,-7914.8447,-7923.89,-7923.6836,-7926.493,-7924.4297,-7920.997,-7921.3267,-7919.5117,-7919.073,-7914.469,-7913.2046,-7914.2705,-7913.86,-7918.292,-7922.6465,-7924.2695,-7917.008,-7920.222,-7930.985,-7923.1816,-7927.0386,-7932.2314,-7917.5996,-7918.83,-7927.333,-7924.7075,-7919.593,-7916.1143,-7918.66,-7917.104,-7916.063,-7924.268,-7928.018,-7928.16,-7928.412,-7923.2515,-7914.8228,-7915.356,-7917.9316,-7908.693,-7911.327,-7921.8525,-7915.7104,-7913.8535,-7925.754,-7930.347,-7921.996,-7921.2847,-7926.029,-7921.9243,-7919.5645,-7918.2344,-7925.12,-7934.113,-7931.2007,-7929.4756,-7921.038,-7919.8013,-7930.283,-7927.0244,-7927.047,-7922.2163,-7905.7354,-7910.1636,-7924.0166,-7927.138,-7920.1943,-7913.112,-7917.365,-7919.6455,-7922.771,-7929.4785,-7931.7153,-7935.7197,-7934.059,-7930.9194,-7926.172,-7921.639,-7928.9395,-7927.927,-7930.7686,-7936.438,-7921.006,-7918.0054,-7924.942,-7923.8545,-7925.9863,-7924.631,-7926.4185,-7927.8174,-7921.5103,-7920.3154,-7924.2314,-7926.841,-7926.4443,-7923.0225,-7914.0166,-7913.3076,-7917.6753,-7908.0737,-7909.349,-7917.091,-7910.1216,-7908.1777,-7910.227,-7911.916,-7912.755,-7913.5337,-7921.4053,-7920.559,-7914.399,-7914.597,-7917.6147,-7920.37,-7921.898,-7923.703,-7915.9307,-7915.257,-7923.9165,-7919.7334,-7922.825,-7925.228,-7917.765,-7920.508,-7923.524,-7925.867,-7922.8213,-7916.9067,-7922.392,-7921.571,-7917.069,-7916.2295,-7916.0,-7918.887,-7918.74,-7920.2983,-7914.916,-7911.6953,-7921.3613,-7916.1143,-7918.704,-7929.2573,-7916.8706,-7918.6553,-7932.1294,-7933.9473,-7931.951,-7924.7705,-7924.922,-7923.369,-7917.304,-7917.481,-7920.133,-7926.679,-7923.649,-7919.4185,-7919.141,-7922.254,-7930.134,-7918.866,-7916.622,-7926.524,-7918.952,-7914.5425,-7915.4688,-7917.8506,-7916.9814,-7913.165,-7914.019,-7913.5273,-7915.409,-7915.7886,-7922.093,-7929.3833,-7926.458,-7924.7417,-7918.7954,-7919.6533,-7927.9507,-7925.386,-7924.838,-7925.584,-7916.214,-7910.849,-7916.6914,-7920.308,-7914.713,-7908.8643,-7911.4897,-7914.114,-7907.002,-7901.5938,-7910.4834,-7921.6133,-7924.221,-7920.112,-7912.216,-7917.131,-7924.0923,-7919.634,-7928.1978,-7931.873,-7917.9136,-7914.644,-7914.992,-7915.3276,-7916.2837,-7909.832,-7910.961,-7918.1465,-7915.284,-7907.5073,-7909.8154,-7917.388,-7919.3447,-7913.787,-7905.0767,-7908.628,-7910.444,-7899.928,-7901.445,-7909.5713,-7907.933,-7905.853,-7911.9497,-7915.787,-7909.0063,-7906.7144,-7911.393,-7910.7163,-7908.6,-7910.7725,-7914.9023,-7916.6157,-7915.652,-7910.5703,-7904.9927,-7909.5415,-7912.397,-7907.5356,-7911.3643,-7913.3047,-7903.7686,-7904.1045,-7912.994,-7916.877,-7914.828,-7911.75,-7918.7725,-7923.7754,-7916.5645,-7912.73,-7920.099,-7922.831,-7917.5674,-7917.317,-7911.9585,-7914.411,-7923.9644,-7919.2383,-7923.5225,-7923.9756,-7913.61,-7915.707,-7918.0444,-7922.608,-7921.0938,-7913.756,-7918.009,-7917.7104,-7917.267,-7920.632,-7926.514,-7934.1836,-7931.161,-7930.1523,-7920.631,-7910.735,-7915.581,-7905.8594,-7907.326,-7917.8506,-7907.825,-7911.001,-7920.58,-7922.1655,-7923.774,-7921.867,-7923.686,-7921.5044,-7919.404,-7922.112,-7921.5396,-7926.34,-7934.0205,-7933.9746,-7924.591,-7924.789,-7932.1274,-7923.8765,-7923.438,-7931.228,-7928.453,-7932.575,-7938.1294,-7934.9575,-7926.896,-7920.787,-7923.0757,-7917.7896,-7910.149,-7916.095,-7922.136,-7917.5684,-7918.4946,-7925.7705,-7918.876,-7919.636,-7925.08,-7919.957,-7938.0996,-7949.5327,-7932.463,-7929.7983,-7934.9395,-7932.932,-7927.54,-7923.806,-7930.2046,-7933.18,-7930.4146,-7929.674,-7929.1934,-7930.017,-7932.1973,-7934.2866,-7927.9443,-7927.0356,-7933.4746,-7919.902,-7915.3354,-7929.2637,-7928.221,-7922.506,-7919.742,-7922.4907,-7924.306,-7921.934,-7928.05,-7923.434,-7916.2573,-7916.927,-7915.2124,-7922.1113,-7928.0806,-7925.0747,-7915.2295,-7911.663,-7918.1543,-7913.713,-7918.515,-7928.8345,-7919.691,-7918.8926,-7926.9634,-7929.731,-7931.8936,-7928.574,-7928.468,-7928.518,-7920.8286,-7919.5493,-7923.721,-7925.1753,-7924.345,-7916.013,-7906.638,-7915.5903,-7925.419,-7919.9004,-7927.8994,-7935.1104,-7924.768,-7925.2305,-7925.273,-7920.0107,-7915.0854,-7909.9893,-7917.165,-7918.4893,-7916.898,-7920.694,-7924.7104,-7934.15,-7934.0684,-7925.655,-7916.507,-7920.6855,-7932.02,-7924.715,-7925.033,-7930.1133,-7920.7227,-7917.81,-7927.6675,-7935.0723,-7929.18,-7927.9126,-7929.4126,-7922.372,-7919.719,-7919.829,-7925.5156,-7931.141,-7934.314,-7941.574,-7938.4927,-7937.6445,-7944.8506,-7940.602,-7938.107,-7937.8384,-7928.3364,-7931.344,-7942.86,-7941.997,-7935.724,-7931.4004,-7932.2393,-7932.81,-7923.9746,-7914.9297,-7918.6514,-7923.875,-7923.6523,-7923.579,-7916.3037,-7918.917,-7926.3936,-7917.781,-7923.512,-7931.316,-7917.59,-7910.936,-7915.8833,-7918.3506,-7915.916,-7913.82,-7911.6895,-7913.422,-7919.052,-7919.465,-7924.2417,-7926.618,-7928.503,-7928.486,-7914.4307,-7919.6123,-7928.8506,-7921.7935,-7926.3354,-7929.1216,-7924.819,-7924.0923,-7929.6533,-7937.031,-7935.347,-7936.0303,-7933.594,-7930.6523,-7931.901,-7922.2676,-7925.81,-7933.435,-7927.288,-7926.47,-7920.022,-7925.9644,-7937.237,-7925.1606,-7926.6606,-7930.1235,-7924.6074,-7928.9053,-7928.6963,-7934.2007,-7931.641,-7924.3223,-7930.846,-7923.1406,-7919.6514,-7924.12,-7921.6055,-7924.478,-7922.0127,-7914.312,-7905.009,-7908.524,-7919.4536,-7914.6284,-7922.1963,-7931.857,-7919.3994,-7916.0825,-7925.354,-7928.5483,-7928.985,-7932.377,-7934.311,-7930.002,-7920.731,-7919.3306,-7928.668,-7928.8384,-7927.271,-7928.2275,-7921.058,-7925.6333,-7930.191,-7921.011,-7920.9766,-7922.946,-7916.6846,-7912.15,-7917.108,-7919.426,-7912.1694,-7914.473,-7915.6978,-7915.2964,-7920.3604,-7914.7295,-7919.5957,-7925.024,-7919.4204,-7923.7173,-7918.4785,-7920.999,-7928.2925,-7914.395,-7916.4795,-7919.4277,-7910.669,-7916.108,-7916.272,-7914.122,-7914.88,-7909.303,-7912.529,-7917.8257,-7915.211,-7913.1284,-7916.691,-7921.8696,-7921.8706,-7920.328,-7913.3354,-7911.7725,-7921.1245,-7914.915,-7919.049,-7934.8315,-7916.911,-7906.6284,-7917.4014,-7913.7793,-7912.7915,-7912.0366,-7909.309,-7915.266,-7911.6445,-7906.294,-7914.3994,-7917.3706,-7915.639,-7914.9355,-7907.7983,-7911.674,-7915.6343,-7904.122,-7901.661,-7906.138,-7910.829,-7914.642,-7915.564,-7921.2915,-7921.2534,-7919.426,-7923.7393,-7925.4775,-7919.809,-7911.7607,-7917.8657,-7924.0283,-7924.876,-7926.154,-7913.189,-7915.2583,-7925.7344,-7916.656,-7924.955,-7938.5117,-7934.41,-7935.05,-7940.5747,-7947.844,-7945.4287,-7939.171,-7943.6494,-7942.575,-7942.1016,-7940.9243,-7941.4756,-7947.9326,-7937.5566,-7927.4224,-7919.6675,-7909.966,-7911.871,-7912.9253,-7923.92,-7931.4307,-7913.126,-7905.413,-7914.927,-7916.279,-7916.101,-7916.7275,-7912.298
-7913.8193,-7911.641,-7906.6997,-7914.199,-7916.0854,-7916.8145,-7918.8447,-7911.526,-7915.497,-7922.1953,-7916.7295,-7914.7407,-7919.6406,-7918.352,-7912.0386,-7914.155,-7913.676,-7910.3926,-7912.6587,-7910.7324,-7912.5845,-7912.2856,-7907.334,-7913.558,-7914.5234,-7916.0625,-7921.862,-7910.6016,-7910.396,-7918.3706,-7912.638,-7917.673,-7918.27,-7908.2886,-7909.5903,-7912.606,-7914.724,-7909.6704,-7907.616,-7917.91,-7917.8047,-7915.592,-7914.276,-7915.5146,-7922.3916,-7920.209,-7918.969,-7911.8594,-7910.452,-7918.446,-7911.6265,-7922.704,-7936.152,-7926.186,-7922.319,-7920.265,-7923.8706,-7925.742,-7914.8276,-7911.13,-7913.091,-7917.6514,-7920.6147,-7924.3564,-7931.255,-7934.994,-7934.1177,-7922.968,-7926.0815,-7932.7896,-7922.067,-7925.846,-7927.7456,-7923.229,-7929.285,-7928.337,-7931.041,-7932.917,-7928.2217,-7928.1255,-7925.4766,-7924.2207,-7925.016,-7932.4175,-7938.0063,-7933.378,-7931.7407,-7925.9707,-7927.776,-7935.0127,-7929.208,-7929.6104,-7930.569,-7922.5435,-7919.6504,-7924.5728,-7932.141,-7931.1235,-7932.0083,-7937.94,-7931.7207,-7927.9526,-7929.5737,-7934.787,-7942.5127,-7938.791,-7936.7793,-7930.3364,-7932.4062,-7945.678,-7936.345,-7943.1763,-7954.425,-7936.845,-7931.478,-7935.8247,-7940.001,-7938.0107,-7933.364,-7941.553,-7939.4067,-7933.281,-7934.1475,-7933.8193,-7934.267,-7934.322,-7931.9683,-7922.0312,-7920.9033,-7925.283,-7919.596,-7921.364,-7925.495,-7922.58,-7920.549,-7925.3047,-7930.0806,-7923.209,-7920.4424,-7926.0747,-7928.318,-7926.4053,-7923.8213,-7929.3896,-7936.769,-7937.04,-7930.7246,-7924.8613,-7929.597,-7932.1064,-7929.2847,-7936.3276,-7940.157,-7930.972,-7929.185,-7936.4536,-7937.135,-7929.8545,-7925.7974,-7930.1123,-7931.0273,-7925.076,-7918.534,-7920.626,-7923.694,-7921.0938,-7922.8853,-7918.867,-7924.084,-7931.265,-7920.861,-7926.763,-7933.8857,-7927.6475,-7925.573,-7929.421,-7931.91,-7920.059,-7919.9336,-7923.8594,-7916.92,-7918.482,-7916.528,-7921.8906,-7927.314,-7921.8496,-7920.5117,-7914.3047,-7917.2607,-7920.105,-7911.5312,-7917.551,-7926.227,-7922.8403,-7918.767,-7919.678,-7923.205,-7925.2285,-7924.539,-7924.043,-7921.544,-7917.747,-7920.817,-7926.131,-7929.5176,-7930.1343,-7925.3867,-7922.7354,-7925.8804,-7929.1577,-7926.9863,-7928.531,-7932.5396,-7926.4365,-7924.693,-7925.0254,-7922.804,-7924.1577,-7921.414,-7923.1543,-7923.9126,-7920.293,-7920.321,-7924.05,-7932.2954,-7936.0303,-7937.612,-7933.5947,-7932.8457,-7933.7295,-7919.5757,-7925.4663,-7937.3037,-7922.7935,-7914.828,-7925.2197,-7936.676,-7929.9106,-7922.7905,-7930.539,-7925.971,-7921.6235,-7928.1943,-7932.513,-7938.951,-7942.546,-7938.5386,-7929.9385,-7930.7383,-7935.9062,-7927.292,-7927.855,-7935.4126,-7930.304,-7928.694,-7932.598,-7936.1704,-7935.6465,-7932.556,-7933.454,-7930.6133,-7927.5337,-7929.518,-7935.02,-7942.194,-7947.1094,-7944.39,-7932.515,-7932.435,-7940.6963,-7940.4062,-7946.217,-7950.1187,-7941.328,-7939.4087,-7947.275,-7950.0083,-7945.2104,-7944.8438,-7948.392,-7948.9575,-7945.5806,-7940.2905,-7943.8037,-7944.5625,-7939.5254,-7938.1943,-7932.9873,-7936.4194,-7939.032,-7937.671,-7951.217,-7955.394,-7945.4937,-7938.9414,-7939.8423,-7944.744,-7943.7466,-7940.753,-7939.3975,-7941.226,-7938.098,-7932.918,-7939.865,-7939.913,-7938.47,-7941.2046,-7932.2188,-7934.576,-7938.148,-7924.408,-7920.759,-7926.5693,-7926.2896,-7919.8354,-7922.3022,-7933.0034,-7929.03,-7928.622,-7938.2495,-7940.213,-7936.6978,-7926.8613,-7928.7886,-7934.288,-7931.166,-7935.6055,-7927.4126,-7923.213,-7931.903,-7924.9883,-7929.7656,-7936.8477,-7925.185,-7923.5005,-7928.673,-7930.3813,-7928.893,-7928.553,-7935.064,-7935.5503,-7928.5327,-7923.243,-7929.6226,-7936.0186,-7930.0576,-7924.985,-7918.9897,-7923.107,-7930.292,-7923.213,-7929.844,-7941.3286,-7930.682,-7919.65,-7931.057,-7941.038,-7935.334,-7933.7837,-7930.8125,-7928.867,-7926.9907,-7922.507,-7931.564,-7932.914,-7933.0195,-7935.521,-7919.428,-7919.2554,-7928.7036,-7923.722,-7923.0386,-7923.092,-7921.7974,-7921.976,-7926.3105,-7937.994,-7939.881,-7933.4995,-7933.108,-7931.7593,-7927.3623,-7929.329,-7933.7964,-7932.938,-7931.413,-7925.6533,-7918.1216,-7924.423,-7927.0366,-7918.557,-7923.085,-7925.2334,-7916.4688,-7919.2983,-7924.63,-7925.233,-7920.714,-7914.0454,-7918.5195,-7917.3677,-7909.3364,-7908.672,-7910.7007,-7914.8,-7920.1045,-7923.3203,-7918.694,-7920.193,-7928.9077,-7925.3735,-7931.3203,-7943.309,-7934.0195,-7927.8154,-7937.325,-7939.275,-7933.294,-7935.2344,-7938.627,-7934.054,-7925.5503,-7925.8994,-7938.5283,-7938.732,-7934.771,-7936.4443,-7927.365,-7929.0024,-7933.512,-7924.4585,-7919.718,-7918.953,-7918.97,-7913.649,-7915.3237,-7924.2314,-7920.6416,-7921.693,-7925.535,-7924.708,-7923.9243,-7919.587,-7926.1665,-7935.0444,-7933.7886,-7932.03,-7931.2314,-7933.8677,-7935.5547,-7936.843,-7940.917,-7939.0596,-7933.759,-7929.8857,-7926.4204,-7930.259,-7930.2476,-7920.8584,-7924.96,-7923.3467,-7915.3994,-7919.804,-7919.787,-7927.649,-7933.927,-7934.784,-7926.717,-7913.232,-7931.734,-7930.909,-7929.911,-7953.6304,-7940.649,-7936.3154,-7944.461,-7944.647,-7945.912,-7938.245,-7940.1694,-7934.48,-7928.6226,-7928.674,-7930.335,-7937.6226,-7930.5693,-7931.9863,-7933.6562,-7931.136,-7934.413,-7924.6514,-7924.762,-7930.5435,-7926.9834,-7924.6694,-7925.278,-7927.2026,-7923.3643,-7924.78,-7928.6763,-7926.416,-7924.2637,-7919.5215,-7921.017,-7927.4717,-7931.927,-7932.318,-7930.2505,-7937.898,-7939.9556,-7935.7773,-7945.373,-7951.479,-7943.819,-7937.109,-7935.9346,-7937.6265,-7934.785,-7932.343,-7937.889,-7936.71,-7935.7783,-7939.286,-7939.32,-7943.6045,-7941.398,-7935.785,-7930.739,-7929.306,-7936.2407,-7930.1567,-7932.7666,-7943.5894,-7934.0757,-7930.297,-7936.281,-7939.046,-7938.14,-7937.3237,-7936.515,-7928.0557,-7924.1406,-7928.503,-7938.732,-7945.6484,-7944.369,-7940.585,-7929.9663,-7934.6055,-7943.55,-7932.949,-7931.213,-7934.978,-7932.1934,-7935.7285,-7943.1753,-7946.065,-7942.849,-7942.4287,-7942.1265,-7940.481,-7941.766,-7936.7876,-7937.4717,-7939.5063,-7932.3486,-7931.4907,-7926.7124,-7927.5054,-7936.0713,-7930.8887,-7932.5215,-7935.677,-7928.017,-7927.6055,-7932.587,-7938.396,-7937.904,-7932.2554,-7929.852,-7928.948,-7931.278,-7929.914,-7935.3867,-7946.6333,-7946.0024,-7946.236,-7941.506,-7936.2383,-7935.91,-7927.5103,-7932.301,-7938.84,-7929.208,-7927.516,-7934.6406,-7937.763,-7937.4116,-7940.0527,-7940.0938,-7936.156,-7936.174,-7932.0635,-7932.404,-7939.4546,-7939.0615,-7935.239,-7926.029,-7928.4976,-7938.689,-7925.7456,-7923.5327,-7937.2847,-7934.1226,-7930.4233,-7931.739,-7932.5444,-7930.084,-7923.934,-7924.658,-7925.657,-7926.072,-7926.158,-7926.6777,-7936.889,-7946.1406,-7943.7114,-7937.848,-7938.934,-7934.9253,-7926.734,-7932.9585,-7936.817,-7931.634,-7932.646,-7940.838,-7951.1895,-7949.9595,-7942.178,-7943.113,-7941.7773,-7933.4287,-7931.8843,-7938.8716,-7940.002,-7937.7354,-7935.809,-7929.073,-7933.3867,-7939.9404,-7936.269,-7941.658,-7949.269,-7944.711,-7937.5654,-7942.5786,-7948.2188,-7939.6704,-7936.8633,-7939.73,-7937.839,-7934.812,-7930.684,-7935.2505,-7940.5977,-7943.4907,-7942.3975,-7928.2617,-7930.246,-7938.4575,-7931.691,-7932.341,-7929.0664,-7923.4697,-7925.785,-7925.144,-7934.8164,-7942.549,-7935.3687,-7932.246,-7935.456,-7936.9136,-7932.382,-7934.0137,-7939.911,-7939.7266,-7942.0977,-7936.701,-7933.996,-7941.408,-7935.7573,-7935.2554,-7938.3843,-7930.2734,-7930.981,-7930.8887,-7928.492,-7928.812,-7923.6167,-7926.7134,-7931.496,-7928.7417,-7924.837,-7924.351,-7929.775,-7933.241,-7931.4595,-7926.603,-7931.195,-7935.01,-7928.4014,-7936.574,-7946.0137,-7940.7466,-7934.071,-7935.63,-7943.771,-7940.454,-7935.8975,-7938.456,-7941.1367,-7941.6714,-7933.772,-7936.9463,-7942.864,-7939.5073,-7941.586,-7935.7783,-7932.6597,-7934.079,-7924.881,-7923.609,-7922.811,-7917.608,-7920.7734,-7922.799,-7926.2124,-7929.2515,-7930.654,-7937.0527,-7933.89,-7931.3574,-7935.383,-7937.8506,-7945.255,-7944.5884,-7938.3613,-7933.046,-7934.222,-7940.3345,-7935.029,-7941.0444,-7944.372,-7932.9365,-7934.548,-7932.0938,-7930.8516,-7934.9785,-7931.4834,-7931.017,-7931.3896,-7931.116,-7925.985,-7930.691,-7940.6665,-7934.9443,-7932.7466,-7930.03,-7931.4556,-7934.4165,-7925.5503,-7930.8394,-7940.9956,-7939.883,-7934.9814,-7936.8394,-7939.852,-7931.893,-7933.325,-7936.131,-7934.32,-7935.3105,-7931.106,-7937.087,-7940.261,-7936.807,-7936.2134,-7927.4565,-7931.8643,-7935.621,-7925.847,-7927.101,-7927.4683,-7927.7915,-7927.9463,-7925.5425,-7937.675,-7937.2637,-7924.253,-7926.216,-7927.375,-7927.5015,-7930.6553,-7937.7617,-7943.7812,-7941.475,-7942.802,-7932.526,-7929.8345,-7940.1353,-7931.179,-7936.0215,-7944.1694,-7937.8037,-7939.7974,-7938.917,-7943.413,-7944.813,-7937.986,-7939.207,-7934.987,-7931.671,-7930.9844,-7930.5225,-7937.7163,-7939.8516,-7931.675,-7923.7334,-7928.8457,-7933.743,-7929.7446,-7937.613,-7946.137,-7938.854,-7935.352,-7939.9805,-7940.0103,-7937.837,-7937.2417,-7937.099,-7933.634,-7930.073,-7930.002,-7927.6323,-7930.0015,-7935.6323,-7930.0186,-7923.9272,-7930.5034,-7931.2583,-7923.0254,-7925.6724,-7928.4624,-7926.7334,-7925.7954,-7925.906,-7933.6772,-7927.7915,-7917.9287,-7924.83,-7924.836,-7921.4478,-7922.858,-7927.991,-7934.0093,-7931.225,-7926.416,-7920.651,-7923.009,-7927.163,-7923.1973,-7932.185,-7936.7715,-7927.443,-7925.86,-7925.311,-7928.479,-7932.473,-7928.858,-7928.5947,-7924.4785,-7920.233,-7922.703,-7925.4326,-7932.6426,-7935.89,-7932.75,-7930.836,-7937.1094,-7943.9556,-7936.687,-7940.9863,-7950.218,-7940.8438,-7935.4976,-7937.11,-7942.734,-7942.5635,-7933.2,-7936.361,-7942.747,-7942.415,-7936.94,-7936.1035,-7942.9585,-7943.2773,-7938.2324,-7929.2017,-7932.1094,-7940.2217,-7932.4673,-7932.276,-7939.893,-7938.888,-7934.1284,-7934.2065,-7938.511,-7935.3677,-7933.9526,-7938.219,-7932.779,-7923.971,-7923.35,-7926.0234,-7927.804,-7934.5625,-7937.506,-7927.069,-7928.6416,-7938.5737,-7933.27,-7931.9653,-7933.4497,-7930.8486,-7933.78,-7930.9165,-7928.8286,-7931.293,-7933.277,-7938.502,-7940.304,-7938.7188,-7934.7305,-7940.112,-7949.6357,-7946.7744,-7939.5093,-7926.9355,-7931.19,-7942.0166,-7931.7017,-7938.479,-7948.587,-7936.694,-7929.8945,-7934.0044,-7942.799,-7939.261,-7930.048,-7933.8013,-7940.534,-7942.979,-7939.616,-7944.2466,-7951.123,-7950.3057,-7949.2285,-7936.571,-7934.4663,-7943.4565,-7939.3467,-7941.648,-7940.148,-7934.278,-7937.3584,-7938.4346,-7943.445,-7940.4395,-7935.049,-7936.9785,-7931.8623,-7934.0903,-7934.086,-7932.0806,-7940.95,-7942.122,-7937.2437,-7928.9897,-7931.943,-7937.4453,-7928.751,-7933.7285,-7934.9443,-7928.3745,-7929.909,-7927.999,-7934.155,-7935.6104,-7934.0845,-7939.519,-7935.866,-7934.822,-7932.757,-7932.8716,-7936.3135,-7932.2314,-7931.489,-7923.5576,-7925.768,-7934.4053,-7922.0366,-7926.228,-7937.9287,-7931.057,-7926.405,-7928.246,-7932.7056,-7927.347,-7918.6533,-7921.3647,-7925.1987,-7926.8496,-7928.54,-7934.479,-7938.364,-7936.7876,-7933.454,-7924.3086,-7924.1626,-7926.6147,-7921.314,-7925.045,-7927.908,-7927.112,-7927.927,-7925.4185,-7929.335,-7930.2183,-7929.456,-7938.2207,-7939.259,-7936.109,-7933.9463,-7935.311,-7945.6577,-7949.136,-7940.4707,-7928.21,-7931.291,-7934.9106,-7926.555,-7932.6187,-7932.44,-7921.989,-7920.5596,-7923.0713,-7928.314,-7922.3125,-7917.8643,-7919.305,-7916.2476,-7918.2217,-7914.176,-7916.5073,-7927.1978,-7929.409,-7927.0923,-7920.944,-7931.549,-7936.9204,-7921.2095,-7925.494,-7936.744,-7942.2075,-7942.8735,-7938.232,-7946.486,-7944.5347,-7936.743,-7939.8027,-7933.6694,-7928.101,-7925.971,-7927.9897,-7932.613,-7927.5728,-7923.173,-7915.505,-7915.0933,-7921.901,-7917.067,-7919.7593,-7920.943,-7918.0273,-7923.4873,-7921.9297,-7927.601,-7931.5825,-7926.715,-7932.363,-7928.57,-7921.5776,-7918.3354,-7917.1694,-7931.1196,-7939.279,-7937.9775,-7937.0107,-7946.279,-7954.7637,-7943.672,-7948.9585,-7957.6235,-7946.2983,-7943.4907,-7946.3003,-7948.023,-7943.9326,-7937.2925,-7936.9287,-7933.5977,-7925.481,-7915.8384,-7915.6816,-7920.3574,-7921.65,-7918.0464,-7908.1196,-7911.2744,-7912.915,-7905.0684,-7910.8,-7916.0537,-7913.829,-7909.059,-7906.508,-7910.262,-7906.952,-7905.6826,-7907.252,-7903.64,-7903.4526,-7902.126,-7912.182,-7923.038,-7916.599,-7913.66,-7908.5396,-7911.377,-7918.5967,-7907.765,-7906.9062,-7903.0957,-7893.6216,-7903.2554,-7906.6055,-7910.035,-7915.9614,-7910.8564,-7912.03,-7912.606,-7911.857,-7914.056,-7915.4795,-7922.3965,-7923.6025,-7917.4946,-7911.322,-7911.5825,-7916.462,-7913.346,-7919.817,-7928.451,-7920.1797,-7917.5312,-7921.392,-7925.184,-7926.4062,-7923.053,-7926.5527,-7926.5073,-7922.092,-7924.5874,-7926.874,-7928.9033,-7931.1655,-7922.801,-7914.17,-7917.575,-7916.429,-7914.853,-7922.105,-7926.8296,-7924.215,-7917.677,-7922.509,-7931.6772,-7929.0083,-7927.1167,-7927.177
-7927.1177,-7928.224,-7922.121,-7927.0864,-7935.7915,-7930.1914,-7930.955,-7926.969,-7928.6685,-7934.732,-7923.4824,-7930.4155,-7932.0586,-7925.0757,-7930.1953,-7920.5127,-7926.194,-7930.6157,-7919.4526,-7926.404,-7925.912,-7924.2964,-7930.3965,-7931.9775,-7930.9976,-7927.1284,-7924.522,-7912.3545,-7915.5205,-7927.209,-7917.347,-7923.322,-7931.84,-7923.5845,-7918.0903,-7917.365,-7928.275,-7930.864,-7923.3477,-7925.0737,-7926.1006,-7923.5483,-7919.2656,-7923.402,-7936.497,-7939.3047,-7929.3447,-7919.5884,-7922.63,-7925.473,-7920.9185,-7926.388,-7934.718,-7933.498,-7926.525,-7923.137,-7930.2993,-7932.0127,-7927.4463,-7928.791,-7926.147,-7924.1294,-7925.6294,-7927.8247,-7932.857,-7933.25,-7931.597,-7930.257,-7938.1357,-7943.3975,-7932.8467,-7931.4087,-7928.957,-7926.467,-7932.452,-7930.104,-7935.0615,-7934.3237,-7927.8945,-7930.501,-7924.0566,-7924.1733,-7923.024,-7923.4956,-7932.508,-7925.5806,-7924.7495,-7923.3237,-7925.007,-7933.4844,-7922.1313,-7926.5654,-7931.4277,-7921.3174,-7929.641,-7933.9263,-7931.953,-7932.005,-7928.2505,-7927.3276,-7928.984,-7933.017,-7929.0063,-7926.1387,-7933.341,-7937.943,-7933.638,-7922.146,-7926.997,-7934.7627,-7926.3545,-7929.6255,-7943.34,-7950.485,-7947.3423,-7944.5093,-7948.7153,-7941.775,-7932.3657,-7933.722,-7935.0693,-7932.357,-7926.24,-7931.2065,-7944.2373,-7944.087,-7933.938,-7927.5347,-7935.103,-7934.016,-7924.6553,-7930.4087,-7925.736,-7919.5024,-7923.555,-7925.3735,-7933.4785,-7930.677,-7926.401,-7928.02,-7923.4116,-7927.135,-7924.0845,-7925.1396,-7936.899,-7936.129,-7931.032,-7922.204,-7933.8667,-7946.655,-7932.6465,-7935.6196,-7935.616,-7926.695,-7933.363,-7937.012,-7941.2983,-7934.884,-7927.477,-7935.6143,-7933.0903,-7934.4014,-7940.861,-7939.5146,-7944.95,-7945.8467,-7940.896,-7938.211,-7942.961,-7949.27,-7942.8394,-7944.539,-7948.5957,-7943.2,-7937.5767,-7932.7456,-7940.831,-7942.638,-7940.072,-7947.3906,-7943.1763,-7937.817,-7931.5054,-7925.8335,-7931.234,-7933.589,-7931.553,-7928.0034,-7931.1177,-7930.8296,-7928.577,-7938.3857,-7935.5186,-7927.5835,-7925.478,-7924.584,-7934.358,-7934.8154,-7929.3403,-7932.6665,-7936.2534,-7939.384,-7936.6646,-7940.3516,-7949.023,-7951.1743,-7950.3726,-7940.87,-7945.2607,-7952.5913,-7945.913,-7951.5557,-7950.222,-7944.597,-7948.6855,-7947.4243,-7951.8003,-7952.681,-7944.724,-7942.374,-7945.511,-7947.205,-7940.3887,-7941.392,-7950.077,-7950.4995,-7945.167,-7938.1885,-7945.42,-7951.5586,-7942.2275,-7949.7124,-7961.2925,-7957.4487,-7953.525,-7952.0884,-7961.5,-7963.816,-7952.55,-7957.857,-7960.754,-7952.507,-7950.599,-7953.3413,-7956.9194,-7953.9604,-7952.4707,-7950.9893,-7951.0845,-7956.3066,-7950.245,-7946.201,-7942.296,-7936.6895,-7941.7812,-7938.5137,-7942.484,-7952.6157,-7947.103,-7947.667,-7947.5327,-7940.2734,-7936.562,-7939.852,-7949.9346,-7951.9873,-7947.5176,-7938.604,-7938.794,-7949.1343,-7948.9277,-7948.4004,-7942.4336,-7936.258,-7941.595,-7944.4136,-7948.7563,-7951.0864,-7949.164,-7945.3325,-7941.5596,-7942.894,-7939.147,-7942.3887,-7949.8228,-7945.868,-7939.1074,-7927.224,-7931.505,-7941.4375,-7931.569,-7939.606,-7951.2856,-7947.832,-7946.169,-7939.5728,-7943.5825,-7941.7275,-7930.1685,-7935.505,-7936.6187,-7933.3306,-7928.35,-7931.0117,-7940.2617,-7930.319,-7926.4463,-7925.061,-7926.6777,-7938.1177,-7934.0215,-7936.3027,-7931.8433,-7921.3647,-7927.2944,-7923.339,-7929.769,-7934.124,-7920.1934,-7925.2905,-7930.429,-7926.1763,-7925.649,-7926.169,-7933.0376,-7939.68,-7934.971,-7924.149,-7930.029,-7938.8994,-7932.632,-7937.37,-7943.88,-7935.8345,-7929.082,-7930.7524,-7935.7896,-7934.1,-7932.557,-7933.8403,-7931.9077,-7932.6567,-7931.8735,-7930.786,-7938.4443,-7947.537,-7939.6323,-7923.687,-7926.2065,-7932.627,-7933.2764,-7936.7603,-7937.1147,-7940.1343,-7937.1685,-7931.6294,-7941.7827,-7941.0044,-7934.049,-7938.8257,-7937.7534,-7938.6523,-7936.8823,-7933.9443,-7940.0503,-7935.822,-7930.462,-7928.334,-7928.5366,-7933.1816,-7929.199,-7929.285,-7926.075,-7919.2983,-7922.634,-7920.6914,-7928.1157,-7934.6094,-7924.3994,-7923.3657,-7921.5513,-7918.408,-7920.9062,-7924.844,-7934.0693,-7936.0654,-7934.6836,-7929.246,-7928.729,-7939.711,-7934.019,-7930.748,-7938.0703,-7937.233,-7936.133,-7932.268,-7935.9497,-7942.5747,-7935.564,-7933.0566,-7937.6265,-7933.7646,-7927.0405,-7928.985,-7933.11,-7937.191,-7934.5303,-7923.7974,-7928.0776,-7932.866,-7929.283,-7932.511,-7932.839,-7933.178,-7929.2896,-7925.1836,-7933.2275,-7931.3257,-7928.1533,-7932.4795,-7930.7627,-7927.977,-7921.1997,-7929.4077,-7946.0127,-7940.574,-7932.953,-7927.996,-7931.894,-7933.906,-7918.6025,-7926.5273,-7935.364,-7926.59,-7929.581,-7930.078,-7932.0254,-7935.0513,-7932.515,-7935.483,-7937.3125,-7936.8335,-7931.5503,-7930.99,-7941.3647,-7945.983,-7937.3555,-7928.076,-7936.3755,-7940.9136,-7935.3643,-7939.845,-7940.7666,-7935.9824,-7936.582,-7941.875,-7945.125,-7943.205,-7943.4697,-7943.7686,-7941.722,-7941.55,-7942.489,-7944.449,-7945.043,-7943.015,-7944.5527,-7949.325,-7946.9697,-7940.655,-7941.909,-7942.385,-7947.631,-7956.681,-7944.353,-7936.4136,-7948.9116,-7945.441,-7932.903,-7938.5786,-7941.605,-7936.262,-7937.2905,-7938.048,-7943.9165,-7949.7153,-7953.485,-7948.131,-7937.784,-7947.8354,-7942.761,-7939.7314,-7945.4434,-7927.524,-7931.262,-7935.325,-7933.0254,-7936.271,-7929.5903,-7941.422,-7941.2124,-7935.6323,-7939.3535,-7936.378,-7945.9185,-7945.151,-7938.357,-7934.853,-7938.392,-7949.729,-7944.6533,-7948.8833,-7951.7314,-7941.4824,-7942.4995,-7941.8877,-7940.286,-7935.604,-7932.1587,-7940.378,-7943.8726,-7943.4814,-7947.173,-7956.975,-7969.46,-7977.0596,-7971.398,-7958.1636,-7955.4487,-7945.749,-7931.4663,-7937.348,-7944.726,-7944.751,-7943.9766,-7941.2017,-7943.825,-7945.379,-7939.1753,-7940.3525,-7948.0894,-7947.7925,-7942.871,-7940.4375,-7939.211,-7935.1675,-7919.581,-7908.3057,-7923.274,-7929.466,-7918.0596,-7920.0303,-7917.7026,-7908.915,-7908.817,-7912.9316,-7921.629,-7918.3247,-7906.914,-7905.0483,-7901.248,-7895.2114,-7888.897,-7888.0186,-7894.935,-7895.0957,-7894.466,-7890.781,-7893.8755,-7897.441,-7875.584,-7874.859,-7886.7134,-7878.1377,-7880.548,-7883.228,-7887.6875,-7893.4507,-7888.7,-7891.5225,-7890.1953,-7881.855,-7873.879,-7870.4443,-7874.2017,-7876.8667,-7877.715,-7873.0024,-7879.0957,-7885.306,-7873.972,-7877.8,-7885.116,-7881.1323,-7878.4297,-7872.763,-7878.7637,-7883.6,-7878.3276,-7881.0234,-7875.6577,-7870.791,-7870.024,-7860.7764,-7868.0615,-7879.198,-7871.367,-7865.7476,-7871.3755,-7874.695,-7873.6465,-7873.428,-7863.713,-7855.4907,-7858.2646,-7857.9883,-7862.439,-7864.5513,-7859.442,-7860.0835,-7857.9375,-7853.699,-7852.3413,-7852.9023,-7857.6265,-7863.1147,-7857.5806,-7845.943,-7848.0254,-7844.285,-7838.735,-7853.822,-7859.5996,-7860.7812,-7866.6294,-7862.7036,-7863.1733,-7863.3784,-7859.89,-7852.644,-7846.7314,-7855.092,-7853.711,-7851.565,-7861.976,-7866.791,-7868.687,-7860.5967,-7857.732,-7865.553,-7859.9307,-7858.6484,-7864.159,-7869.257,-7873.6475,-7871.448,-7880.531,-7887.1343,-7883.0635,-7885.056,-7883.1997,-7876.193,-7867.927,-7870.3,-7882.1094,-7885.3228,-7881.383,-7872.9395,-7874.851,-7879.782,-7873.6313,-7872.0493,-7868.328,-7868.3486,-7881.977,-7888.3228,-7885.0503,-7879.5137,-7877.1807,-7884.6904,-7892.924,-7893.094,-7891.3086,-7895.5537,-7902.456,-7905.763,-7900.6187,-7893.2344,-7903.0845,-7913.962,-7907.688,-7908.6616,-7914.228,-7909.8667,-7908.363,-7912.6646,-7917.18,-7916.9165,-7913.4375,-7912.415,-7913.8013,-7911.7007,-7906.8125,-7913.8027,-7921.199,-7920.9497,-7918.137,-7909.1304,-7917.298,-7925.852,-7918.5044,-7924.97,-7928.9873,-7929.9478,-7931.4375,-7924.9453,-7932.2026,-7932.06,-7927.4863,-7937.1997,-7933.791,-7928.6167,-7928.284,-7928.6494,-7937.122,-7940.203,-7935.808,-7928.151,-7932.268,-7937.3413,-7930.383,-7933.556,-7927.401,-7919.2134,-7927.0503,-7929.343,-7934.479,-7935.4053,-7930.3843,-7932.109,-7934.1865,-7934.948,-7930.012,-7933.6016,-7942.6104,-7942.3184,-7936.1333,-7926.358,-7932.589,-7939.1143,-7933.2427,-7936.5273,-7937.0986,-7935.1494,-7936.444,-7938.548,-7945.0327,-7945.418,-7944.6553,-7942.891,-7937.7583,-7933.2026,-7926.1035,-7931.9004,-7939.3096,-7939.258,-7937.567,-7924.3516,-7932.6455,-7944.254,-7930.4316,-7941.756,-7955.224,-7948.285,-7947.319,-7943.45,-7945.9463,-7942.6626,-7933.063,-7939.786,-7941.479,-7940.1016,-7937.671,-7937.476,-7948.7866,-7948.9937,-7941.6978,-7933.4995,-7934.8916,-7944.348,-7939.022,-7939.516,-7938.2197,-7929.946,-7933.5796,-7932.142,-7938.7476,-7943.57,-7931.752,-7934.8145,-7938.4297,-7932.238,-7926.921,-7925.533,-7935.668,-7941.6816,-7933.6294,-7922.342,-7924.8325,-7933.336,-7929.7485,-7927.5103,-7930.0127,-7928.027,-7925.6255,-7932.0938,-7939.9995,-7938.3857,-7935.8496,-7934.22,-7935.6636,-7936.8813,-7932.2046,-7931.921,-7935.5312,-7941.3193,-7937.7856,-7925.5107,-7929.94,-7933.4097,-7929.5522,-7935.3926,-7934.999,-7934.7334,-7934.4663,-7927.6143,-7936.2515,-7940.5337,-7931.216,-7930.1953,-7932.7114,-7930.9863,-7921.819,-7926.3467,-7939.63,-7938.863,-7934.769,-7925.301,-7935.0815,-7947.166,-7931.513,-7933.8765,-7934.0444,-7924.6953,-7933.4683,-7934.173,-7935.9277,-7936.135,-7925.135,-7924.8896,-7924.379,-7918.0645,-7919.9014,-7929.05,-7938.5483,-7941.0166,-7931.387,-7925.3135,-7936.2456,-7938.0303,-7926.0283,-7927.7456,-7933.8267,-7928.8374,-7925.2334,-7928.925,-7930.094,-7929.6333,-7928.3027,-7920.357,-7922.8257,-7929.6147,-7923.752,-7925.1743,-7933.612,-7938.548,-7933.627,-7926.288,-7937.5674,-7938.3945,-7932.4243,-7947.4634,-7951.199,-7948.672,-7950.8506,-7944.1787,-7945.0425,-7944.636,-7940.477,-7943.3516,-7940.8877,-7935.13,-7929.418,-7930.642,-7936.1816,-7935.7427,-7935.0674,-7932.159,-7934.0283,-7933.971,-7928.1655,-7933.049,-7930.39,-7923.732,-7924.584,-7920.6465,-7927.696,-7932.374,-7923.3647,-7925.8604,-7929.558,-7925.311,-7916.5767,-7915.1973,-7925.8193,-7924.8745,-7915.979,-7907.324,-7910.0845,-7919.107,-7914.6177,-7919.107,-7924.072,-7918.6177,-7912.8765,-7905.386,-7907.4756,-7908.561,-7911.037,-7917.3843,-7917.0444,-7919.863,-7917.5356,-7915.925,-7919.605,-7916.6094,-7909.8823,-7903.77,-7910.6577,-7918.5825,-7914.6704,-7914.361,-7918.559,-7919.0723,-7909.3345,-7904.366,-7913.136,-7914.2563,-7914.109,-7920.2837,-7919.889,-7913.48,-7909.503,-7917.812,-7927.0093,-7927.101,-7922.6655,-7914.863,-7918.8066,-7919.3687,-7912.89,-7922.2344,-7916.103,-7902.434,-7908.004,-7911.214,-7914.458,-7913.341,-7909.9917,-7916.8726,-7919.5786,-7917.1934,-7911.848,-7911.501,-7920.5073,-7922.939,-7915.695,-7907.1045,-7912.042,-7922.2607,-7920.9404,-7921.2876,-7918.8945,-7911.7524,-7907.9946,-7902.2837,-7906.304,-7907.0786,-7898.903,-7901.8574,-7902.9565,-7900.48,-7901.1714,-7908.276,-7918.3433,-7918.362,-7910.693,-7898.896,-7903.4414,-7913.9033,-7911.386,-7919.861,-7922.8315,-7916.3745,-7919.946,-7919.3447,-7920.8677,-7921.3936,-7915.937,-7918.922,-7917.026,-7911.625,-7917.4194,-7925.7295,-7928.446,-7930.173,-7929.64,-7923.6797,-7928.0005,-7929.9077,-7923.3125,-7928.1494,-7919.531,-7905.3345,-7910.2925,-7913.477,-7917.8696,-7920.9917,-7914.572,-7914.1855,-7916.3994,-7915.093,-7914.6826,-7917.5,-7924.9707,-7930.1997,-7923.1655,-7915.154,-7923.222,-7927.3325,-7923.3447,-7933.149,-7937.459,-7928.53,-7924.0703,-7924.1855,-7927.3784,-7925.178,-7922.9556,-7928.48,-7930.2427,-7933.0005,-7932.981,-7932.183,-7942.424,-7942.3403,-7930.5586,-7923.6753,-7925.348,-7929.6543,-7925.8945,-7929.799,-7939.8433,-7946.723,-7950.98,-7940.9336,-7940.373,-7943.465,-7933.6807,-7937.349,-7939.1104,-7937.518,-7942.333,-7943.5547,-7952.325,-7956.9155,-7947.9067,-7939.184,-7943.3975,-7951.1416,-7948.081,-7947.269,-7942.7373,-7931.385,-7925.5127,-7925.108,-7928.5557,-7925.412,-7917.9634,-7917.274,-7921.4927,-7921.6724,-7916.823,-7916.971,-7920.091,-7918.929,-7908.345,-7901.8037,-7914.652,-7921.9214,-7919.766,-7926.034,-7924.3145,-7915.306,-7914.3955,-7916.344,-7921.787,-7925.1553,-7921.8267,-7921.438,-7924.179,-7922.858,-7913.2007,-7912.677,-7921.445,-7920.4717,-7918.2344,-7912.589,-7913.1216,-7919.8174,-7914.7944,-7917.7803,-7921.438,-7925.252,-7932.4956,-7928.1387,-7934.7075,-7934.618,-7926.8105,-7936.7573,-7933.374,-7923.311,-7922.034,-7924.335,-7937.9336,-7941.0513,-7925.382,-7915.187,-7919.478,-7920.082,-7912.338,-7916.1665,-7920.8354,-7916.8325,-7918.2236,-7922.5645,-7921.9985,-7919.3726,-7923.4927,-7925.673,-7923.949,-7927.312,-7925.759,-7924.555,-7928.7627,-7935.0015,-7933.0327,-7918.0854,-7920.8403,-7927.4814,-7922.6143,-7928.6787,-7931.1523,-7929.973,-7929.6777,-7928.4263,-7932.644,-7930.919,-7932.8145,-7934.3574,-7929.9863,-7932.857,-7931.226,-7934.4697,-7944.734,-7941.743,-7932.2266,-7927.053,-7932.1914,-7937.991,-7938.521,-7944.8535,-7948.0923,-7946.8853,-7944.974,-7942.367,-7948.15,-7944.4307,-7934.4463,-7938.947
-7939.397,-7933.3315,-7931.2163,-7935.46,-7942.102,-7937.579,-7926.54,-7919.257,-7925.2163,-7929.8506,-7921.9067,-7925.6655,-7925.5435,-7917.6255,-7921.991,-7922.1704,-7925.401,-7931.1616,-7926.8496,-7928.4707,-7932.8975,-7933.157,-7933.178,-7933.4336,-7938.0737,-7943.9487,-7939.1143,-7934.2275,-7941.5815,-7940.3164,-7936.0615,-7941.6616,-7941.0767,-7937.655,-7936.0024,-7939.2583,-7943.3457,-7937.0034,-7933.691,-7935.735,-7938.4497,-7938.111,-7931.851,-7933.4414,-7940.2153,-7945.2314,-7940.6387,-7928.881,-7936.706,-7943.0176,-7932.9785,-7937.9907,-7943.706,-7942.6885,-7943.66,-7936.537,-7942.1167,-7945.5654,-7934.3364,-7936.9243,-7938.9697,-7940.585,-7942.175,-7939.755,-7950.7637,-7951.9688,-7941.246,-7941.4478,-7947.977,-7946.3115,-7940.4185,-7944.2197,-7937.6733,-7927.0894,-7930.9966,-7933.236,-7936.4136,-7939.0254,-7934.3267,-7934.05,-7938.768,-7938.6475,-7933.547,-7929.214,-7933.9517,-7942.815,-7933.7637,-7921.693,-7930.5176,-7937.804,-7931.8794,-7934.0117,-7943.5767,-7945.5713,-7946.0547,-7951.2095,-7958.0854,-7958.221,-7951.621,-7951.256,-7953.937,-7948.3027,-7937.4194,-7934.5117,-7942.1436,-7951.5376,-7946.2715,-7936.105,-7948.0444,-7949.001,-7933.159,-7934.341,-7938.53,-7945.836,-7947.2676,-7939.1006,-7943.4497,-7941.228,-7936.7593,-7938.657,-7937.9136,-7939.968,-7932.831,-7931.5957,-7940.8735,-7936.3955,-7925.1255,-7919.688,-7932.616,-7941.012,-7929.9766,-7934.582,-7936.1694,-7925.396,-7933.046,-7942.0933,-7946.97,-7955.608,-7958.5923,-7958.466,-7953.083,-7945.5264,-7942.1777,-7936.959,-7935.2847,-7936.8164,-7926.6523,-7914.2793,-7916.5327,-7919.624,-7914.8794,-7917.213,-7921.52,-7916.309,-7909.351,-7906.094,-7908.368,-7908.4893,-7904.2476,-7907.6484,-7909.573,-7900.822,-7896.6523,-7900.7686,-7901.985,-7906.1694,-7906.515,-7898.1772,-7906.3716,-7915.212,-7912.7754,-7916.6934,-7916.6567,-7914.9653,-7910.9204,-7902.7505,-7904.758,-7911.445,-7918.364,-7922.0127,-7920.7593,-7916.1553,-7912.4893,-7919.9077,-7923.3706,-7918.791,-7913.505,-7904.8794,-7908.051,-7909.3794,-7899.109,-7904.437,-7909.0337,-7898.8677,-7893.62,-7891.7026,-7895.5186,-7904.64,-7902.5405,-7898.4385,-7900.4937,-7900.428,-7899.595,-7896.4995,-7901.526,-7914.9443,-7911.6177,-7903.8755,-7912.2627,-7916.658,-7908.8516,-7910.211,-7915.7617,-7908.9434,-7898.941,-7900.5996,-7913.0957,-7911.961,-7903.5464,-7905.9375,-7902.9556,-7897.32,-7896.045,-7900.6523,-7912.632,-7918.9453,-7912.6265,-7904.766,-7911.6353,-7914.6265,-7908.8696,-7915.254,-7918.5454,-7916.834,-7917.1978,-7912.5776,-7911.4067,-7910.5957,-7904.159,-7901.2847,-7903.0723,-7902.412,-7899.6167,-7902.6577,-7913.6045,-7922.9097,-7914.7876,-7899.465,-7906.465,-7914.056,-7904.9023,-7908.744,-7907.2505,-7893.2085,-7895.743,-7900.263,-7903.089,-7903.332,-7897.0894,-7900.4043,-7903.079,-7900.4556,-7896.6377,-7896.4414,-7908.222,-7912.402,-7906.9,-7905.1206,-7907.4805,-7910.9395,-7909.896,-7917.684,-7926.8813,-7922.582,-7916.227,-7913.094,-7920.5386,-7922.4575,-7915.829,-7918.0527,-7913.07,-7908.0493,-7910.4653,-7911.9404,-7918.729,-7921.441,-7914.569,-7911.0063,-7916.734,-7915.6025,-7908.172,-7909.7173,-7911.7617,-7917.1196,-7919.342,-7911.8584,-7915.404,-7918.646,-7912.6807,-7915.4175,-7920.4805,-7919.034,-7917.498,-7915.7134,-7920.4136,-7929.331,-7920.501,-7910.1084,-7918.358,-7923.4824,-7918.3135,-7916.6333,-7914.0527,-7904.855,-7899.674,-7893.118,-7886.77,-7894.8657,-7903.53,-7907.004,-7908.364,-7905.3384,-7902.992,-7904.6714,-7916.3613,-7923.9165,-7910.614,-7900.4126,-7909.509,-7913.537,-7907.734,-7911.6133,-7911.7305,-7903.0044,-7900.618,-7902.081,-7907.2563,-7906.97,-7902.318,-7905.613,-7906.7773,-7905.293,-7907.804,-7911.8813,-7915.7812,-7918.9194,-7912.73,-7905.182,-7913.727,-7916.699,-7909.8623,-7909.9395,-7911.182,-7913.648,-7912.2397,-7906.715,-7909.1177,-7912.6606,-7906.1616,-7902.2085,-7907.3706,-7903.4727,-7898.612,-7901.743,-7901.5347,-7904.181,-7901.4907,-7893.9507,-7899.7764,-7902.111,-7896.3813,-7899.5513,-7905.5435,-7905.7744,-7904.165,-7905.2607,-7906.5083,-7905.9346,-7904.4795,-7905.516,-7910.603,-7909.9824,-7903.173,-7903.732,-7915.1396,-7920.0503,-7906.7593,-7893.9385,-7900.113,-7908.744,-7904.8687,-7906.8135,-7910.1226,-7904.7515,-7901.863,-7902.749,-7911.617,-7914.6846,-7909.467,-7907.7856,-7903.5444,-7903.5986,-7900.645,-7896.0493,-7900.204,-7900.4053,-7896.0146,-7895.1978,-7907.3213,-7914.2314,-7906.4395,-7906.839,-7907.669,-7908.065,-7912.145,-7913.374,-7919.244,-7924.542,-7926.323,-7928.6636,-7927.2896,-7922.829,-7922.619,-7924.181,-7929.3213,-7934.6294,-7919.676,-7909.178,-7920.936,-7924.491,-7918.5967,-7921.061,-7925.697,-7918.7783,-7914.189,-7920.822,-7925.8564,-7927.4473,-7926.0664,-7927.3545,-7929.398,-7924.1504,-7917.287,-7915.517,-7926.861,-7935.927,-7927.72,-7929.0938,-7943.422,-7944.5063,-7936.8003,-7935.1504,-7935.724,-7934.28,-7928.7134,-7928.308,-7938.0,-7934.1357,-7929.018,-7935.8945,-7935.183,-7933.3706,-7928.174,-7924.977,-7932.4663,-7935.7476,-7932.261,-7927.2593,-7936.611,-7942.218,-7934.2266,-7941.4907,-7942.933,-7940.4463,-7948.593,-7941.9243,-7939.9146,-7949.8633,-7949.996,-7947.3213,-7943.6377,-7941.7207,-7938.8403,-7935.5327,-7945.4473,-7946.474,-7937.1157,-7938.475,-7937.018,-7937.04,-7937.6943,-7933.082,-7938.895,-7937.5107,-7930.4233,-7935.7017,-7945.213,-7953.34,-7946.5933,-7946.227,-7955.2783,-7948.345,-7947.485,-7948.664,-7949.8687,-7959.3564,-7961.023,-7954.51,-7956.1177,-7972.4277,-7969.4893,-7966.3457,-7976.347,-7967.5566,-7966.4014,-7962.6655,-7957.883,-7966.3315,-7962.805,-7959.8145,-7956.893,-7955.4565,-7953.4136,-7949.1826,-7956.433,-7959.042,-7951.6885,-7942.6416,-7950.166,-7959.167,-7954.72,-7962.2446,-7964.974,-7962.809,-7962.1,-7952.925,-7957.35,-7962.0845,-7954.186,-7954.0225,-7955.2905,-7950.159,-7948.5083,-7951.211,-7959.1914,-7964.4688,-7951.444,-7944.79,-7959.1533,-7961.764,-7951.5303,-7954.478,-7956.6333,-7946.2173,-7942.881,-7946.492,-7950.988,-7956.0176,-7953.115,-7947.421,-7949.988,-7952.7935,-7949.1157,-7949.9985,-7957.003,-7963.3906,-7959.824,-7951.9736,-7957.7554,-7960.069,-7954.853,-7959.038,-7962.8555,-7966.2524,-7968.187,-7966.7065,-7974.0703,-7977.902,-7974.1567,-7971.2876,-7971.817,-7975.0376,-7965.666,-7964.3477,-7979.038,-7982.3687,-7978.4756,-7972.7163,-7977.6836,-7979.56,-7967.451,-7974.456,-7975.8286,-7969.0283,-7973.7354,-7967.404,-7968.6562,-7975.8984,-7972.721,-7974.045,-7978.4707,-7980.7534,-7973.979,-7968.475,-7976.1196,-7981.876,-7976.4487,-7967.6074,-7972.76,-7975.681,-7964.6245,-7966.915,-7969.198,-7964.1904,-7968.758,-7970.506,-7974.236,-7981.773,-7978.3057,-7973.546,-7974.2866,-7975.413,-7976.401,-7971.1187,-7977.913,-8002.3374,-7994.5254,-7975.0283,-7985.9155,-7987.019,-7979.225,-7984.7876,-7987.0117,-7986.8447,-7980.6357,-7974.529,-7980.939,-7978.14,-7971.6777,-7973.842,-7976.4224,-7979.4146,-7973.7954,-7970.3857,-7978.3936,-7983.4556,-7974.343,-7960.956,-7969.999,-7973.757,-7964.213,-7974.537,-7980.0635,-7980.1587,-7983.4966,-7977.558,-7981.5396,-7983.886,-7977.3306,-7977.7197,-7976.319,-7973.3853,-7971.334,-7972.0513,-7982.02,-7988.6797,-7976.5845,-7966.3604,-7978.1934,-7981.996,-7973.846,-7980.903,-7983.8555,-7973.68,-7972.2866,-7975.4175,-7976.0596,-7974.7134,-7966.439,-7966.753,-7981.814,-7985.6133,-7981.2183,-7984.838,-7990.9863,-7995.411,-7983.8755,-7970.5566,-7980.8794,-7983.9746,-7971.5728,-7973.033,-7978.8213,-7977.003,-7975.1245,-7974.0205,-7980.9766,-7987.259,-7979.493,-7974.8887,-7979.355,-7979.689,-7971.771,-7966.169,-7976.1494,-7987.164,-7975.6567,-7965.0693,-7978.325,-7983.854,-7977.4263,-7980.734,-7984.5786,-7988.1914,-7990.7173,-7988.222,-7987.1787,-7984.174,-7980.322,-7980.6885,-7984.051,-7982.3643,-7978.607,-7979.164,-7981.3853,-7988.2715,-7980.477,-7966.922,-7974.695,-7977.417,-7974.074,-7975.838,-7971.455,-7967.0933,-7963.0493,-7966.082,-7976.632,-7977.986,-7975.752,-7976.828,-7979.0986,-7976.3315,-7969.616,-7972.2876,-7979.7485,-7980.8853,-7968.016,-7955.3994,-7969.073,-7981.6807,-7974.463,-7977.0044,-7981.032,-7973.653,-7968.791,-7965.392,-7970.128,-7973.2427,-7967.4575,-7970.9116,-7970.725,-7968.2485,-7970.807,-7971.4014,-7982.004,-7988.9214,-7982.031,-7977.5513,-7983.221,-7988.7515,-7982.2583,-7979.5337,-7980.2627,-7981.563,-7987.5625,-7983.3975,-7980.6045,-7982.2793,-7979.6597,-7985.2793,-7992.682,-7990.511,-7985.0947,-7983.0347,-7993.5376,-8005.6597,-7995.5635,-7992.242,-8005.8857,-8003.3604,-7997.5063,-7998.404,-8001.4604,-8001.6177,-7989.653,-7987.179,-7990.9634,-7989.6934,-7993.6216,-7991.9395,-7993.5283,-8001.5874,-8002.6343,-8009.2466,-8016.8247,-8014.166,-8000.579,-7989.4507,-7999.001,-8003.634,-7997.308,-8001.9224,-8009.23,-8014.869,-8012.888,-8007.1416,-8010.9497,-8010.905,-8007.84,-8009.3975,-8010.7397,-8012.717,-8013.0693,-8011.7197,-8018.959,-8026.8325,-8013.557,-8001.1045,-8009.556,-8013.74,-8004.9385,-8000.8286,-8005.862,-8011.416,-8017.2256,-8014.3545,-8010.8247,-8017.9194,-8012.7246,-8008.518,-8013.375,-8008.542,-8003.701,-8000.6514,-8010.0522,-8021.0425,-8003.796,-7998.307,-8014.991,-8010.7124,-8004.669,-8009.7236,-8007.335,-8008.077,-8008.3457,-8010.3804,-8015.7217,-8012.1104,-8011.821,-8009.825,-8008.2876,-8009.6006,-8004.9175,-8007.901,-8014.484,-8016.482,-8004.0635,-7993.829,-8011.1304,-8019.15,-8010.4736,-8010.543,-8012.0396,-8012.2925,-8010.0557,-8005.5205,-8010.7944,-8018.1,-8017.624,-8016.6104,-8018.6816,-8019.864,-8010.1484,-8004.204,-8015.872,-8018.1997,-8003.6333,-7992.346,-7999.2295,-8007.8784,-8001.953,-8006.318,-8011.247,-8009.0728,-8013.5225,-8010.014,-8011.4043,-8017.07,-8013.4106,-8012.232,-8011.3506,-8011.672,-8012.208,-8010.8115,-8017.2866,-8023.777,-8013.292,-8001.4795,-8008.28,-8015.55,-8013.4287,-8014.083,-8015.3945,-8008.7183,-8004.252,-8009.868,-8010.371,-8009.205,-8010.8496,-8006.5835,-8008.1475,-8007.096,-7998.6567,-8002.142,-8011.712,-8017.5757,-8010.6646,-8002.41,-8011.92,-8012.825,-8007.1885,-8013.9805,-8013.1787,-8011.5903,-8011.21,-8005.0845,-8011.5444,-8015.6836,-8012.37,-8010.455,-8005.228,-8006.4595,-8003.6514,-7998.8184,-8006.836,-8015.92,-8012.008,-8000.936,-8009.4604,-8018.9785,-8013.2734,-8015.8657,-8017.705,-8019.9336,-8018.4375,-8009.3286,-8018.86,-8026.635,-8013.822,-8005.427,-8010.399,-8011.663,-8005.512,-8003.304,-8007.8403,-8015.4375,-8007.5767,-7996.547,-8005.32,-8007.507,-8000.146,-8002.88,-8005.8403,-8002.556,-7999.8174,-8000.779,-8005.2856,-8008.036,-8005.733,-8001.583,-7999.1343,-8004.482,-8010.1074,-8008.392,-8015.7275,-8025.0015,-8015.16,-8006.869,-8011.746,-8008.7974,-7999.3857,-7997.1426,-8000.56,-8003.0137,-7998.3184,-7995.0864,-8001.515,-8003.714,-8001.2227,-8001.3633,-8003.171,-8004.917,-8001.6924,-8005.4453,-8017.0146,-8019.985,-8010.57,-8002.004,-8009.8247,-8013.0674,-8011.7075,-8020.634,-8019.941,-8018.759,-8018.8105,-8016.7065,-8027.644,-8027.606,-8016.042,-8019.682,-8028.2812,-8031.665,-8032.7134,-8027.8135,-8031.4487,-8043.345,-8033.4287,-8020.4917,-8028.9546,-8038.257,-8038.9487,-8040.4106,-8041.3965,-8038.2544,-8039.5747,-8040.228,-8038.1157,-8040.2236,-8037.2856,-8031.3105,-8028.2285,-8020.356,-8012.7983,-8012.474,-8015.6855,-8020.5166,-8011.4785,-8000.035,-8009.4805,-8012.578,-8010.279,-8013.9106,-8011.9155,-8014.6475,-8009.782,-8002.405,-8007.0684,-8006.927,-8004.493,-8000.5903,-8005.718,-8015.2476,-8012.9766,-8014.3667,-8015.442,-8015.7334,-8006.151,-7992.519,-8001.2974,-8004.6553,-8008.865,-8018.572,-8009.6777,-8011.4487,-8017.1475,-8011.153,-8013.0703,-8015.6494,-8012.132,-8010.6597,-8014.907,-8015.3774,-8015.1875,-8018.119,-8022.2363,-8029.0415,-8016.655,-8007.0645,-8021.1367,-8019.592,-8010.0005,-8017.2,-8020.063,-8013.6304,-8014.2197,-8016.1875,-8019.223,-8024.5093,-8017.954,-8009.209,-8011.422,-8016.126,-8017.7646,-8016.23,-8019.5317,-8027.0005,-8015.18,-8004.075,-8014.512,-8015.369,-8014.605,-8019.7734,-8017.9683,-8022.25,-8021.5967,-8016.9497,-8022.388,-8023.1196,-8019.8184,-8019.344,-8023.785,-8027.0806,-8020.3296,-8017.1655,-8022.339,-8030.553,-8024.777,-8010.0396,-8019.6274,-8026.976,-8021.2646,-8026.181,-8027.467,-8032.013,-8038.2407,-8032.238,-8031.3896,-8035.9204,-8035.2,-8036.409,-8041.974,-8039.008,-8038.626,-8043.8647,-8043.683,-8049.26,-8038.0664,-8020.9805,-8035.4277,-8045.088,-8036.14,-8034.474,-8036.147,-8029.0537,-8019.105,-8019.2896,-8026.024,-8031.3716,-8033.626,-8029.599,-8029.4414,-8032.8506,-8023.8633,-8020.699,-8034.3516,-8043.834,-8036.381,-8024.037,-8031.704,-8038.9727,-8034.51,-8037.2983,-8037.67,-8038.555,-8033.119,-8025.9106,-8034.6304,-8036.06,-8031.5215,-8029.4736,-8029.514,-8032.7915,-8031.1997,-8031.1387,-8033.259,-8039.0034,-8036.523,-8024.763,-8028.7607,-8030.26,-8024.7554,-8029.4185,-8032.9644,-8039.778,-8044.1313,-8034.6484,-8029.046,-8030.9683,-8030.8594,-8027.922
-8031.7197,-8036.2783,-8031.641,-8032.8315,-8042.29,-8051.334,-8042.7295,-8029.847,-8040.301,-8039.9146,-8034.6396,-8045.121,-8044.606,-8039.1387,-8027.117,-8018.811,-8027.9453,-8030.1,-8029.546,-8025.4,-8020.857,-8023.1177,-8017.287,-8015.243,-8023.834,-8032.486,-8021.34,-8006.3115,-8021.4365,-8029.2783,-8021.782,-8024.4824,-8024.048,-8027.5244,-8030.842,-8025.8994,-8031.1597,-8034.0176,-8029.0923,-8027.161,-8023.027,-8021.6455,-8020.532,-8023.4233,-8035.589,-8035.049,-8023.836,-8020.525,-8027.3374,-8030.6807,-8025.554,-8029.5586,-8031.8447,-8031.4404,-8039.773,-8036.709,-8033.305,-8040.2812,-8037.605,-8032.587,-8034.1206,-8030.1953,-8028.408,-8035.2725,-8044.8535,-8052.7437,-8039.0225,-8026.8013,-8037.71,-8033.7354,-8025.2173,-8032.9927,-8033.9233,-8027.829,-8025.9434,-8029.2373,-8033.4717,-8035.6226,-8035.5103,-8034.4185,-8043.454,-8051.4355,-8045.8926,-8044.936,-8051.551,-8054.681,-8042.8604,-8027.782,-8039.3604,-8049.257,-8038.097,-8037.6777,-8039.6313,-8041.0527,-8045.5376,-8040.0205,-8046.3374,-8050.7007,-8042.6924,-8044.2383,-8041.907,-8042.778,-8044.7827,-8038.8496,-8044.618,-8054.1025,-8052.0303,-8045.698,-8054.282,-8061.116,-8052.813,-8052.787,-8053.644,-8058.3384,-8067.6504,-8065.8677,-8063.0474,-8061.716,-8060.392,-8053.694,-8049.7466,-8056.0776,-8056.0024,-8051.328,-8053.5366,-8060.327,-8053.4106,-8045.18,-8051.782,-8047.97,-8036.8306,-8032.2817,-8036.571,-8044.441,-8039.7866,-8038.87,-8048.9834,-8053.333,-8050.796,-8043.9766,-8040.2026,-8041.6304,-8040.5327,-8036.6675,-8042.418,-8055.1455,-8047.869,-8039.622,-8052.8096,-8056.2153,-8051.871,-8052.2915,-8050.9233,-8056.6357,-8056.6646,-8048.766,-8049.4346,-8047.596,-8041.5757,-8039.235,-8039.7856,-8042.067,-8037.881,-8033.6235,-8041.159,-8051.1924,-8048.9355,-8038.4014,-8043.79,-8052.951,-8047.5376,-8051.013,-8058.2744,-8060.9106,-8061.3496,-8054.009,-8056.9883,-8064.6846,-8060.9907,-8058.674,-8068.597,-8077.7646,-8073.8555,-8067.006,-8064.172,-8066.156,-8052.116,-8030.3516,-8038.557,-8041.0503,-8023.6797,-8022.573,-8024.9795,-8016.01,-8005.1772,-8005.3135,-8012.6978,-8010.415,-8001.8916,-7996.667,-7998.867,-7997.9023,-7991.7905,-7992.322,-7995.128,-7998.7646,-7988.7344,-7972.7866,-7981.581,-7985.9697,-7975.6807,-7978.2554,-7984.7026,-7988.9517,-7980.9033,-7965.2197,-7968.2656,-7971.767,-7969.9644,-7968.174,-7962.6147,-7963.7676,-7960.4893,-7960.6333,-7971.793,-7975.357,-7967.3735,-7959.3154,-7968.7744,-7973.6484,-7969.279,-7975.492,-7974.1313,-7976.0483,-7981.7603,-7974.9165,-7973.0664,-7975.4673,-7976.5317,-7976.201,-7975.8413,-7976.2163,-7970.7183,-7966.573,-7972.701,-7981.2075,-7974.8296,-7967.9653,-7975.2075,-7973.107,-7967.9595,-7976.4585,-7978.587,-7971.544,-7971.5723,-7976.5527,-7979.871,-7978.6523,-7973.1367,-7971.078,-7975.1787,-7973.2446,-7967.6924,-7969.7007,-7974.109,-7984.083,-7985.1924,-7975.7524,-7984.8765,-7991.9937,-7985.957,-7986.683,-7990.2646,-7995.093,-7995.151,-7989.151,-7987.344,-7991.068,-7992.0835,-7983.7993,-7985.8667,-7990.4395,-7980.446,-7982.91,-7993.419,-7997.6865,-7991.369,-7977.5493,-7984.914,-7990.6997,-7987.7686,-7996.159,-7992.358,-7994.247,-8004.733,-8003.167,-8005.6562,-8002.6807,-7996.479,-7992.4053,-7989.554,-7995.9927,-7993.6436,-7991.739,-8003.249,-8012.8726,-8009.26,-7999.27,-8004.4507,-8009.0474,-8004.4556,-8006.0874,-8002.8335,-7996.2803,-7991.499,-7990.502,-7998.4443,-8001.101,-7998.1094,-7995.8145,-7998.457,-8004.8276,-8001.8135,-7998.5264,-8004.7666,-8013.256,-8004.852,-7988.7705,-7997.3936,-8005.5923,-8000.475,-8002.313,-8005.6714,-8007.696,-8001.5547,-7996.932,-8000.578,-8001.103,-8004.4663,-8004.0415,-8003.4194,-7999.9385,-7989.4336,-7990.9707,-7995.9004,-8005.29,-8006.7656,-7994.274,-8000.17,-8002.1147,-7997.985,-8003.478,-8000.3936,-8006.1724,-8007.7964,-7996.1675,-7994.864,-7992.8955,-7996.1465,-7997.041,-7993.1235,-7999.1885,-7995.136,-7989.0044,-7994.3447,-8000.623,-7993.6157,-7981.768,-7988.969,-7989.8867,-7979.7065,-7983.1196,-7988.1377,-7987.1377,-7982.196,-7979.629,-7983.1094,-7986.2217,-7987.9854,-7985.7993,-7987.706,-7991.9536,-7986.597,-7980.9873,-7987.2266,-8000.0273,-7993.591,-7983.0996,-7993.5146,-7991.847,-7983.6147,-7991.9033,-7996.827,-7995.9106,-7993.3613,-7992.172,-7998.9336,-7999.0283,-7988.84,-7987.712,-7992.5645,-7994.028,-7996.892,-7989.629,-7987.5356,-8001.4263,-7992.0947,-7980.638,-7995.0034,-7995.867,-7987.2026,-7992.177,-7995.671,-8000.295,-8005.6616,-7999.725,-7996.742,-7999.655,-7999.668,-7997.3193,-7991.756,-7987.84,-7988.9033,-7988.3486,-7992.1694,-8006.67,-7999.8096,-7982.1074,-7992.536,-7995.25,-7988.935,-7994.597,-7987.6377,-7982.1514,-7980.8,-7979.049,-7984.6245,-7980.978,-7979.4375,-7980.1196,-7979.187,-7984.5093,-7986.037,-7987.59,-7991.719,-7999.618,-7993.818,-7980.9844,-7989.4946,-7989.5176,-7983.498,-7989.7256,-7989.3677,-7985.022,-7982.3745,-7983.654,-7984.52,-7984.2954,-7988.5664,-7987.6914,-7987.4014,-7989.5796,-7986.9297,-7983.218,-7988.4785,-8005.973,-8000.7056,-7981.977,-7991.041,-7998.0566,-7992.5527,-7991.7046,-7990.918,-7996.048,-7996.942,-7990.887,-7986.7554,-7986.2056,-7994.2603,-7995.49,-7997.4146,-8002.4556,-7994.3496,-7992.585,-7999.827,-8005.9106,-7991.825,-7972.241,-7982.193,-7983.369,-7981.6216,-7989.0894,-7980.4653,-7981.598,-7976.4653,-7967.4966,-7978.5117,-7980.066,-7982.427,-7983.4663,-7978.577,-7984.6514,-7983.5225,-7978.204,-7979.274,-7982.3843,-7981.143,-7976.899,-7980.5996,-7984.6577,-7981.417,-7978.274,-7984.3325,-7988.2744,-7984.4443,-7984.714,-7992.2534,-7997.0244,-7990.325,-7992.432,-7991.1064,-7981.7383,-7985.2886,-7977.5723,-7974.85,-7984.575,-7983.513,-7973.439,-7968.6514,-7982.5757,-7976.625,-7970.8975,-7983.8696,-7980.71,-7985.208,-7984.2866,-7979.6045,-7985.5254,-7980.473,-7977.155,-7978.5957,-7983.611,-7983.272,-7976.0654,-7978.782,-7988.063,-7985.8735,-7975.441,-7980.6753,-7981.763,-7976.3447,-7977.529,-7975.13,-7976.6465,-7970.3765,-7967.9497,-7976.7593,-7973.827,-7973.8706,-7976.187,-7977.967,-7982.672,-7979.956,-7977.593,-7980.1826,-7988.4287,-7983.58,-7969.2075,-7978.2695,-7985.441,-7985.099,-7990.9453,-7985.0127,-7983.9604,-7981.975,-7973.5522,-7977.657,-7977.267,-7977.9097,-7978.5967,-7978.5215,-7988.0283,-7984.3804,-7980.3584,-7986.939,-7990.785,-7986.488,-7979.25,-7987.731,-7988.712,-7978.0454,-7980.724,-7983.992,-7986.8203,-7990.634,-7989.2656,-7987.949,-7985.6606,-7981.1313,-7980.8174,-7989.052,-7991.062,-7981.3076,-7974.965,-7984.3213,-7997.8477,-7986.7163,-7973.851,-7985.161,-7991.8535,-7988.7715,-7992.295,-7996.576,-7990.5947,-7980.8945,-7982.1963,-7987.0693,-7990.66,-7995.0366,-7987.7227,-7986.76,-7993.0747,-7982.054,-7979.3066,-7988.7495,-7995.886,-7993.057,-7979.5664,-7984.5767,-7986.3003,-7980.554,-7986.4844,-7981.239,-7981.3867,-7983.8906,-7979.9043,-7988.598,-7992.256,-7986.683,-7980.6235,-7982.1294,-7986.927,-7981.256,-7977.6167,-7980.097,-7985.9785,-7980.3315,-7963.943,-7964.831,-7972.132,-7973.824,-7974.1313,-7974.549,-7980.22,-7980.7227,-7976.1235,-7979.2964,-7984.1006,-7982.3276,-7980.1763,-7982.4507,-7982.079,-7976.902,-7971.864,-7977.5605,-7991.779,-7985.0625,-7968.7676,-7975.2793,-7986.309,-7986.838,-7984.6714,-7981.3994,-7975.3516,-7968.121,-7968.972,-7972.5303,-7974.7563,-7977.187,-7973.866,-7977.96,-7979.6313,-7971.7856,-7972.004,-7976.6704,-7988.865,-7983.778,-7965.472,-7972.096,-7974.8867,-7972.8413,-7976.7974,-7976.9683,-7981.896,-7976.834,-7975.511,-7984.899,-7982.6787,-7980.3237,-7977.526,-7975.4116,-7975.2256,-7971.1475,-7973.7075,-7979.1807,-7988.727,-7984.651,-7967.8813,-7976.4507,-7977.2964,-7965.1865,-7974.915,-7977.8574,-7977.1953,-7982.641,-7975.906,-7973.915,-7979.246,-7977.612,-7969.746,-7967.1807,-7977.342,-7981.558,-7977.0376,-7983.992,-7993.2593,-7982.877,-7970.6025,-7979.043,-7986.1826,-7981.657,-7979.0293,-7980.6475,-7984.0684,-7976.547,-7969.259,-7974.911,-7978.91,-7980.055,-7973.6055,-7969.844,-7973.6973,-7972.2837,-7973.705,-7975.4824,-7979.946,-7977.4194,-7970.0,-7982.351,-7984.1646,-7976.4595,-7981.2827,-7979.322,-7981.666,-7983.2188,-7971.5635,-7969.1436,-7971.2944,-7969.2183,-7968.1035,-7970.795,-7972.4053,-7967.642,-7970.6396,-7979.486,-7986.564,-7983.091,-7971.541,-7980.4644,-7986.265,-7980.989,-7984.5254,-7981.119,-7988.6436,-7996.9976,-7992.128,-7993.248,-7988.549,-7991.6914,-7993.692,-7987.8213,-7995.0776,-7994.4146,-7992.582,-8001.0938,-8009.687,-8002.5225,-7983.49,-7984.3438,-7980.3247,-7967.8057,-7970.7954,-7972.1353,-7978.1694,-7979.362,-7974.673,-7987.3823,-7990.268,-7982.2593,-7984.547,-7991.532,-7994.7246,-7986.5044,-7980.7407,-7985.597,-7996.235,-7994.5,-7979.889,-7988.097,-7996.637,-7992.179,-8000.3735,-8005.0454,-8006.5757,-8007.0522,-8003.295,-8006.12,-8005.6753,-8001.2905,-7996.204,-7996.7046,-7998.74,-7991.2783,-7992.0767,-7999.9956,-8007.967,-8003.9575,-7990.497,-8003.6704,-8013.4385,-8007.24,-8014.107,-8011.439,-8007.32,-8008.8887,-8005.4062,-8006.7617,-8004.1045,-8004.7686,-8003.2417,-8002.047,-8011.0493,-8006.091,-8003.9634,-8008.7104,-8011.363,-8005.894,-7990.785,-8003.904,-8011.6973,-8002.17,-8008.443,-8006.4736,-8004.2666,-8000.3677,-7994.2114,-8000.6323,-7999.3022,-7998.156,-7996.154,-7990.199,-7993.8125,-7994.169,-7993.908,-8002.55,-8007.468,-7997.411,-7985.3794,-7987.3887,-7990.305,-7986.375,-7986.1313,-7990.957,-7998.6543,-7997.4097,-7987.448,-7990.9805,-7998.0625,-7994.389,-7990.938,-7990.841,-7989.1133,-7987.449,-7990.1724,-7997.0513,-8004.6304,-7996.2773,-7985.165,-7996.8125,-8001.8335,-7995.228,-7996.2827,-7995.7065,-7999.9434,-8006.5913,-8006.143,-8005.1333,-8003.748,-8002.898,-8000.9624,-8002.994,-8004.6562,-8000.015,-8004.481,-8012.6973,-8018.238,-8010.718,-7994.539,-8005.243,-8014.281,-8005.3823,-8009.79,-8012.7305,-8008.4194,-8002.9517,-8000.032,-8003.574,-8005.322,-8010.2393,-8007.491,-8005.9736,-8011.7637,-8005.604,-8004.082,-8007.3906,-8012.8247,-8008.612,-7988.4683,-7993.8604,-8006.052,-8008.1255,-8016.2524,-8014.917,-8019.3315,-8021.4897,-8007.3184,-8007.2153,-8015.0454,-8018.4644,-8021.7515,-8025.523,-8027.4214,-8023.723,-8022.1333,-8025.5894,-8032.386,-8025.3457,-8011.3657,-8017.0713,-8016.909,-8009.952,-8014.3105,-8016.4507,-8021.7075,-8021.896,-8011.49,-8006.9375,-8008.4375,-8012.269,-8008.923,-8008.1704,-8010.484,-8002.4766,-8001.6353,-8005.7666,-8011.177,-8003.5864,-7986.723,-8000.9443,-8011.6304,-8008.3804,-8013.1914,-8010.7256,-8010.296,-8000.5,-7991.9126,-7999.315,-7999.3438,-7999.212,-7992.4404,-7986.374,-7990.0933,-7985.401,-7984.9126,-7991.185,-8000.2915,-7996.7173,-7980.1963,-7988.3403,-7995.223,-7986.9077,-7990.7944,-7992.0923,-7993.4604,-7994.3223,-7989.876,-7997.3716,-8000.472,-7996.6084,-7994.0312,-7990.316,-7992.4517,-7987.3486,-7981.855,-7991.1865,-8001.306,-7997.738,-7987.41,-7995.7334,-8000.883,-7988.6777,-7990.24,-7993.81,-7996.2217,-7999.298,-7993.1655,-7996.232,-7997.7256,-7991.508,-7986.9697,-7985.652,-7993.3096,-7995.669,-7995.5566,-7999.2085,-8001.906,-7997.745,-7986.733,-7993.411,-8001.243,-8001.3765,-8007.457,-8001.944,-7999.6055,-7999.6294,-7994.3706,-7998.831,-7998.486,-7998.642,-8000.4688,-8002.126,-8007.4736,-8002.844,-8002.7314,-8008.968,-8016.137,-8010.709,-7994.2217,-8008.6143,-8018.2188,-8009.2515,-8014.0903,-8011.7563,-8015.387,-8017.0728,-8003.3936,-8006.546,-8014.236,-8016.8994,-8017.147,-8016.314,-8021.413,-8017.0415,-8009.7324,-8015.9165,-8022.9893,-8013.3345,-8001.4243,-8009.6445,-8012.158,-8000.6035,-8003.426,-8011.391,-8016.372,-8020.0986,-8016.509,-8016.9966,-8017.877,-8017.5767,-8019.0356,-8017.869,-8021.2373,-8022.506,-8017.8984,-8016.6665,-8024.263,-8018.511,-8003.922,-8018.6235,-8027.3706,-8022.917,-8029.921,-8031.444,-8039.356,-8039.324,-8033.3066,-8041.8325,-8039.5674,-8031.977,-8021.8853,-8016.6475,-8017.6875,-8005.7773,-8003.2285,-8008.897,-8016.839,-8016.992,-8002.455,-8007.98,-8007.637,-7994.671,-7992.735,-7982.3164,-7979.44,-7976.65,-7967.718,-7971.998,-7972.649,-7974.474,-7972.759,-7967.6265,-7966.983,-7957.5537,-7956.4263,-7959.948,-7962.29,-7958.3843,-7943.579,-7953.0645,-7964.3784,-7956.0664,-7949.6895,-7942.8545,-7945.124,-7949.6597,-7948.572,-7952.7744,-7957.9795,-7958.1304,-7951.419,-7953.1655,-7958.96,-7958.1997,-7956.635,-7958.307,-7971.1284,-7962.555,-7943.6772,-7954.743,-7960.525,-7958.002,-7961.3306,-7959.8496,-7956.804,-7949.651,-7952.6045,-7962.394,-7960.9478,-7962.6157,-7964.346,-7963.136,-7965.2344,-7963.0825,-7962.0693,-7966.8716,-7979.915,-7974.5117,-7952.8687,-7962.3643,-7965.9326,-7957.65,-7964.0225,-7956.29,-7955.4546,-7957.968,-7955.636,-7965.6577,-7964.957,-7964.4727,-7964.763,-7961.568,-7969.2354,-7970.942,-7964.7905,-7959.8813,-7964.9277,-7963.3594,-7950.591,-7959.966,-7964.8687,-7957.9497,-7962.3013,-7957.6416,-7959.168,-7967.173,-7962.1562,-7961.2207,-7964.4185,-7967.7007,-7964.5703
