0.0,-3345.4294,-12067.939,-16003.738,-14689.037,-18043.275,-17336.975,-15177.8125,-18088.18,-16491.006,-17193.781,-18613.918,-17427.55,-19497.914,-18847.729,-19381.732,-20020.775,-19089.965,-20023.693,-18935.361,-19040.883,-18646.264,-17830.871,-18021.875,-17040.996
-17263.527,-16868.084,-16818.457,-17162.309,-17044.451,-17718.605,-17804.166,-18338.81,-18716.846,-18922.934,-19363.379,-19299.463,-19482.234,-19296.281,-19103.451,-18884.166,-18441.111,-18189.477,-17747.86,-17507.49,-17281.01,-17120.93,-17156.941,-17192.193,-17427.004
-17643.896,-17959.885,-18301.596,-18582.193,-18885.094,-19059.719,-19193.475,-19202.701,-19118.201,-18964.535,-18720.475,-18470.164,-18162.217,-17890.635,-17650.623,-17460.322,-17368.355,-17336.414,-17415.92,-17554.787,-17754.402,-18004.148,-18252.71,-18513.312,-18732.914
-18895.607,-18990.71,-19007.29,-18949.074,-18813.781,-18629.605,-18406.787,-18174.695,-17952.113,-17756.154,-17621.727,-17537.36,-17516.408,-17572.455,-17681.408,-17841.05,-18036.521,-18240.719,-18436.646,-18612.547,-18750.701,-18822.176,-18833.828,-18792.596,-18693.008
-18554.156,-18382.572,-18196.307,-18022.793,-17869.543,-17754.125,-17691.988,-17685.45,-17722.879,-17796.525,-17914.166,-18058.893,-18212.344,-18368.621,-18505.26,-18608.281,-18668.17,-18675.896,-18638.334,-18564.408,-18460.078,-18331.273,-18199.818,-18077.531,-17958.06
-17864.648,-17818.951,-17810.299,-17835.836,-17902.246,-17995.736,-18098.361,-18205.996,-18315.285,-18412.377,-18486.125,-18532.424,-18542.422,-18520.65,-18468.574,-18391.875,-18305.275,-18208.982,-18119.154,-18038.273,-17972.271,-17943.984,-17940.54,-17956.615,-17993.783
-18046.402,-18121.209,-18205.959,-18279.143,-18343.307,-18398.598,-18427.438,-18429.69,-18415.77,-18383.201,-18334.805,-18278.066,-18217.926,-18159.455,-18102.723,-18061.326,-18044.3,-18036.973,-18043.357,-18068.02,-18097.607,-18137.97,-18192.219,-18241.27,-18280.09
-18311.61,-18333.447,-18349.584,-18352.08,-18332.166,-18297.586,-18259.424,-18225.8,-18195.488,-18166.729,-18141.91,-18126.852,-18122.846,-18123.648,-18132.54,-18144.41,-18159.422,-18188.871,-18214.918,-18233.201,-18248.74,-18255.568,-18265.88,-18268.848,-18265.008
-18259.32,-18236.83,-18225.695,-18218.525,-18198.28,-18192.19,-18190.098,-18184.955,-18184.223,-18186.744,-18191.447,-18192.758,-18191.178,-18190.492,-18198.719,-18202.463,-18199.334,-18206.47,-18211.852,-18217.031,-18224.928,-18226.68,-18234.576,-18246.865,-18250.693
-18249.004,-18244.977,-18239.836,-18233.617,-18223.004,-18213.51,-18203.602,-18189.975,-18185.316,-18186.7,-18180.248,-18168.062,-18165.434,-18173.725,-18179.441,-18188.062,-18201.998,-18215.203,-18232.074,-18247.24,-18256.344,-18263.389,-18258.28,-18242.33,-18229.61
-18211.041,-18189.549,-18170.953,-18151.277,-18142.035,-18133.379,-18125.941,-18130.588,-18140.709,-18160.822,-18179.438,-18201.627,-18235.1,-18257.64,-18271.875,-18277.025,-18276.902,-18279.795,-18270.268,-18252.15,-18230.58,-18201.805,-18169.83,-18144.617,-18130.176
-18118.783,-18115.277,-18117.645,-18121.49,-18136.67,-18160.924,-18184.771,-18211.16,-18241.814,-18261.924,-18272.902,-18284.807,-18291.05,-18286.846,-18270.61,-18249.643,-18222.855,-18184.777,-18155.375,-18136.26,-18114.768,-18104.416,-18105.107,-18108.723,-18125.451
-18151.648,-18181.916,-18216.941,-18251.244,-18282.398,-18299.854,-18303.77,-18305.562,-18298.979,-18278.85,-18250.715,-18217.38,-18181.305,-18154.742,-18132.3,-18105.74,-18090.6,-18083.041,-18089.377,-18115.324,-18145.26,-18186.764,-18225.074,-18250.393,-18276.424
-18292.367,-18301.416,-18307.215,-18302.104,-18290.686,-18267.246,-18231.684,-18194.867,-18157.727,-18131.4,-18115.182,-18099.088,-18098.371,-18107.99,-18121.727,-18148.11,-18178.727,-18214.709,-18246.906,-18271.102,-18295.744,-18309.668,-18316.145,-18308.377,-18285.627
-18269.738,-18243.105,-18202.84,-18174.664,-18152.191,-18129.924,-18118.352,-18118.387,-18126.479,-18137.742,-18157.158,-18188.918,-18218.074,-18244.049,-18270.979,-18290.604,-18302.73,-18306.92,-18298.057,-18276.6,-18250.957,-18222.865,-18190.29,-18163.229,-18147.82
-18132.28,-18114.47,-18110.61,-18121.928,-18141.463,-18162.295,-18184.105,-18217.572,-18252.637,-18276.285,-18290.27,-18296.81,-18297.814,-18294.086,-18280.955,-18255.016,-18229.16,-18204.018,-18176.373,-18158.594,-18145.379,-18132.52,-18125.7,-18124.117,-18129.75
-18151.383,-18183.996,-18210.268,-18234.123,-18257.898,-18279.045,-18293.066,-18290.582,-18284.861,-18272.484,-18244.988,-18217.998,-18194.266,-18173.387,-18156.098,-18140.46,-18130.893,-18129.896,-18136.047,-18147.34,-18161.143,-18181.148,-18209.334,-18231.102,-18245.963
-18261.754,-18273.988,-18281.58,-18279.082,-18267.83,-18248.47,-18223.281,-18200.883,-18180.49,-18173.73,-18167.123,-18152.852,-18151.746,-18148.902,-18148.975,-18161.812,-18181.262,-18213.63,-18238.305,-18251.516,-18262.26,-18265.52,-18270.518,-18274.215,-18270.428
-18256.738,-18232.549,-18209.771,-18191.99,-18179.277,-18168.117,-18159.07,-18160.057,-18165.914,-18175.795,-18185.357,-18194.8,-18216.768,-18234.047,-18242.828,-18255.303,-18259.457,-18263.553,-18267.463,-18257.523,-18243.35,-18226.86,-18212.209,-18205.58,-18203.154
-18196.55,-18186.578,-18186.135,-18187.877,-18188.596,-18196.709,-18210.646,-18221.54,-18229.465,-18244.094,-18251.723,-18249.236,-18247.506,-18250.719,-18254.986,-18241.99,-18226.547,-18215.709,-18201.764,-18197.375,-18189.805,-18177.248,-18172.633,-18177.457,-18190.18
-18199.086,-18205.967,-18212.092,-18215.596,-18223.072,-18232.865,-18236.635,-18228.426,-18223.402,-18230.447,-18231.42,-18219.674,-18207.945,-18200.82,-18193.059,-18188.969,-18188.014,-18185.643,-18183.578,-18182.914,-18187.205,-18192.217,-18200.314,-18210.9,-18210.986
-18213.04,-18223.44,-18231.154,-18235.684,-18230.518,-18220.83,-18216.96,-18210.096,-18200.7,-18194.773,-18191.555,-18186.39,-18178.275,-18178.445,-18183.348,-18185.24,-18190.455,-18198.4,-18203.287,-18203.781,-18209.291,-18219.97,-18223.387,-18225.62,-18229.258
-18225.41,-18215.615,-18205.086,-18202.277,-18205.412,-18204.94,-18201.512,-18192.021,-18182.814,-18182.13,-18182.139,-18189.275,-18203.55,-18208.346,-18206.986,-18208.176,-18212.926,-18217.973,-18217.984,-18216.688,-18213.236,-18204.15,-18195.244,-18190.523,-18192.8
-18198.621,-18194.28,-18183.66,-18188.37,-18201.7,-18204.404,-18202.56,-18204.174,-18208.318,-18208.707,-18208.26,-18212.322,-18209.53,-18206.322,-18209.86,-18211.727,-18215.398,-18211.67,-18199.44,-18197.504,-18201.514,-18201.295,-18195.729,-18193.691,-18198.281
-18198.18,-18197.355,-18201.486,-18208.535,-18210.469,-18206.768,-18205.943,-18205.58,-18207.219,-18203.848,-18197.598,-18201.213,-18205.645,-18210.05,-18210.959,-18201.523,-18197.145,-18202.691,-18204.02,-18203.244,-18210.496,-18216.732,-18220.627,-18224.588,-18225.861
-18229.277,-18224.295,-18214.473,-18211.078,-18206.262,-18206.074,-18209.086,-18206.775,-18205.586,-18209.633,-18206.61,-18194.33,-18191.572,-18189.271,-18182.377,-18181.213,-18183.361,-18188.715,-18186.383,-18183.695,-18189.48,-18194.117,-18196.916,-18193.73,-18193.6
-18197.455,-18197.553,-18193.787,-18188.008,-18189.78,-18185.697,-18180.998,-18186.424,-18185.092,-18183.04,-18181.566,-18177.275,-18177.738,-18179.69,-18177.49,-18174.406,-18172.271,-18167.285,-18169.457,-18177.86,-18181.38,-18180.086,-18173.22,-18174.055,-18184.006
-18187.225,-18183.912,-18174.363,-18169.11,-18173.688,-18176.055,-18179.11,-18179.96,-18177.38,-18179.1,-18183.26,-18188.791,-18194.479,-18199.025,-18193.19,-18183.809,-18187.094,-18190.97,-18195.742,-18205.465,-18208.693,-18206.348,-18197.379,-18187.158,-18187.28
-18189.537,-18192.03,-18201.045,-18202.129,-18192.973,-18188.621,-18184.027,-18182.309,-18187.117,-18187.342,-18186.783,-18184.516,-18179.521,-18178.697,-18186.838,-18198.723,-18198.389,-18192.527,-18191.1,-18191.797,-18191.049,-18189.113,-18195.566,-18197.045,-18190.564
-18195.906,-18193.766,-18183.656,-18186.25,-18179.545,-18172.521,-18182.418,-18189.719,-18197.594,-18202.49,-18196.736,-18194.67,-18196.682,-18195.238,-18189.262,-18184.158,-18182.836,-18182.637,-18181.576,-18175.963,-18175.371,-18180.598,-18176.809,-18175.29,-18182.78
-18190.22,-18197.91,-18200.875,-18204.691,-18215.504,-18218.379,-18210.264,-18205.072,-18205.135,-18202.01,-18199.129,-18198.963,-18199.234,-18205.361,-18206.705,-18200.482,-18200.822,-18196.926,-18188.15,-18188.676,-18191.45,-18195.31,-18199.375,-18201.152,-18207.291
-18208.582,-18204.672,-18203.816,-18207.42,-18216.629,-18211.67,-18196.58,-18195.8,-18200.031,-18203.387,-18202.916,-18198.21,-18200.025,-18199.027,-18195.441,-18195.246,-18196.602,-18198.65,-18194.814,-18193.752,-18192.625,-18189.184,-18188.424,-18183.574,-18186.438
-18189.625,-18185.648,-18181.951,-18174.178,-18173.82,-18176.525,-18171.604,-18170.766,-18177.973,-18182.629,-18184.11,-18182.83,-18170.514,-18172.328,-18187.404,-18185.455,-18183.102,-18184.908,-18185.373,-18189.777,-18193.389,-18196.56,-18196.209,-18192.354,-18183.836
-18183.31,-18192.762,-18191.979,-18194.156,-18192.139,-18182.254,-18186.059,-18190.58,-18196.172,-18196.932,-18187.984,-18193.842,-18204.475,-18204.545,-18199.676,-18195.037,-18194.236,-18195.123,-18193.35,-18189.89,-18188.62,-18183.523,-18180.117,-18180.32,-18173.871
-18172.791,-18176.004,-18180.459,-18193.08,-18195.393,-18183.893,-18180.611,-18183.932,-18177.85,-18175.06,-18180.229,-18181.73,-18185.268,-18180.84,-18175.428,-18184.256,-18184.744,-18179.803,-18179.393,-18178.256,-18181.486,-18181.14,-18177.553,-18179.36,-18182.44
-18181.28,-18177.07,-18178.197,-18182.105,-18180.668,-18175.336,-18180.277,-18192.182,-18191.842,-18188.715,-18184.697,-18179.703,-18180.639,-18180.57,-18185.717,-18183.914,-18175.201,-18180.326,-18184.727,-18184.775,-18183.871,-18181.639,-18183.127,-18181.207,-18182.314
-18184.064,-18178.654,-18179.594,-18179.102,-18175.541,-18185.176,-18193.684,-18192.316,-18187.479,-18183.816,-18187.918,-18188.23,-18184.576,-18187.57,-18192.865,-18194.861,-18189.953,-18185.129,-18184.36,-18186.004,-18187.855,-18185.236,-18182.125,-18179.469,-18179.68
-18182.975,-18185.408,-18188.484,-18189.494,-18189.814,-18193.82,-18200.406,-18198.31,-18187.7,-18189.025,-18195.645,-18192.414,-18187.643,-18184.375,-18182.672,-18188.28,-18194.049,-18187.455,-18178.594,-18179.7,-18181.14,-18180.39,-18179.629,-18174.986,-18173.633
-18175.484,-18172.41,-18170.969,-18177.148,-18183.08,-18184.092,-18183.701,-18181.436,-18182.398,-18188.545,-18190.342,-18186.244,-18180.812,-18179.617,-18180.2,-18183.09,-18186.672,-18182.727,-18185.105,-18191.555,-18188.021,-18183.008,-18183.225,-18184.455,-18180.705
-18178.398,-18181.281,-18185.049,-18184.986,-18181.793,-18180.205,-18176.252,-18173.193,-18170.68,-18170.582,-18174.277,-18171.258,-18171.61,-18178.266,-18180.406,-18180.361,-18180.27,-18177.209,-18174.527,-18175.406,-18176.28,-18180.695,-18180.605,-18175.73,-18177.014
-18177.805,-18183.26,-18188.87,-18184.17,-18179.89,-18181.795,-18185.402,-18186.525,-18184.809,-18177.234,-18174.654,-18182.543,-18185.959,-18187.09,-18193.578,-18199.361,-18194.793,-18185.754,-18183.19,-18184.004,-18185.62,-18187.906,-18189.205,-18189.924,-18196.842
-18200.73,-18187.717,-18180.697,-18186.625,-18183.176,-18180.041,-18184.785,-18182.457,-18184.895,-18195.662,-18197.277,-18198.578,-18200.791,-18198.213,-18198.03,-18193.771,-18188.771,-18187.066,-18181.453,-18182.219,-18184.672,-18180.479,-18182.344,-18181.057,-18177.123
-18182.014,-18183.812,-18183.438,-18181.002,-18177.623,-18176.41,-18171.8,-18172.592,-18176.838,-18182.379,-18185.074,-18181.453,-18186.31,-18186.236,-18178.062,-18182.15,-18188.113,-18184.268,-18182.146,-18187.02,-18188.49,-18184.068,-18180.73,-18185.355,-18192.713
-18195.469,-18199.154,-18203.426,-18202.764,-18195.055,-18190.105,-18187.89,-18183.674,-18185.06,-18185.787,-18185.838,-18182.174,-18179.486,-18183.674,-18179.602,-18182.186,-18184.562,-18172.879,-18174.203,-18182.201,-18177.377,-18170.941,-18173.99,-18178.715,-18181.562
-18183.404,-18182.098,-18182.656,-18179.621,-18175.97,-18179.074,-18180.432,-18184.074,-18186.768,-18183.873,-18189.309,-18192.707,-18187.65,-18190.092,-18191.547,-18188.094,-18186.816,-18185.69,-18186.37,-18182.941,-18182.637,-18190.875,-18194.012,-18193.523,-18191.576
-18192.717,-18194.674,-18190.816,-18193.84,-18197.643,-18193.078,-18185.701,-18182.217,-18189.219,-18192.07,-18189.11,-18190.148,-18185.902,-18184.373,-18192.488,-18197.094,-18198.459,-18203.502,-18204.672,-18197.422,-18195.506,-18196.738,-18193.432,-18197.16,-18199.057
-18194.514,-18195.613,-18191.227,-18184.215,-18181.19,-18175.26,-18174.635,-18172.504,-18172.305,-18178.896,-18174.773,-18174.572,-18181.486,-18180.043,-18176.92,-18175.15,-18173.729,-18174.861,-18176.94,-18174.855,-18173.924,-18175.926,-18174.496,-18173.621,-18174.725
-18179.117,-18186.99,-18189.463,-18186.848,-18184.445,-18179.951,-18179.447,-18180.988,-18173.963,-18171.234,-18175.484,-18176.156,-18178.191,-18182.543,-18181.07,-18174.654,-18172.07,-18169.855,-18171.041,-18177.393,-18175.357,-18176.164,-18178.508,-18166.049,-18158.695
-18162.385,-18165.97,-18171.816,-18165.025,-18156.371,-18170.018,-18176.207,-18176.729,-18188.42,-18181.354,-18165.965,-18166.604,-18169.074,-18174.92,-18196.87,-18209.37,-18198.95,-18193.814,-18184.004,-18162.766,-18159.516,-18159.906,-18151.754,-18147.262,-18139.697
-18135.234,-18135.734,-18134.625,-18129.707,-18118.615,-18120.21,-18121.695,-18108.074,-18110.656,-18119.76,-18110.904,-18102.219,-18095.611,-18082.041,-18073.61,-18069.36,-18071.744,-18076.65,-18065.205,-18061.725,-18063.771,-18053.078,-18051.695,-18046.676,-18037.928
-18034.002,-18015.81,-18001.531,-18002.088,-18000.275,-17992.236,-17986.78,-17980.797,-17968.836,-17965.652,-17968.654,-17970.9,-17969.293,-17958.117,-17954.143,-17954.33,-17950.219,-17950.818,-17951.332,-17954.098,-17952.236,-17939.125,-17931.605,-17933.03,-17936.787
-17932.488,-17928.104,-17932.453,-17929.43,-17928.441,-17929.309,-17921.338,-17923.336,-17927.783,-17919.902,-17912.436,-17909.584,-17908.426,-17909.074,-17912.867,-17915.824,-17910.344,-17905.488,-17906.553,-17905.195,-17899.596,-17895.277,-17897.31,-17902.45,-17910.775
-17918.43,-17920.875,-17925.514,-17927.57,-17928.844,-17933.275,-17930.549,-17928.68,-17930.672,-17929.26,-17929.264,-17929.457,-17930.695,-17937.35,-17940.932,-17937.646,-17938.46,-17941.418,-17940.229,-17939.613,-17942.021,-17954.793,-17964.332,-17957.51,-17954.803
-17961.145,-17964.838,-17962.549,-17963.943,-17970.773,-17975.402,-17975.887,-17970.084,-17972.71,-17980.918,-17980.748,-17983.03,-17986.688,-17986.256,-17987.734,-17995.201,-17997.555,-17994.566,-17994.65,-17989.94,-17989.93,-17992.766,-17994.887,-17998.809,-17993.807
-17997.48,-18002.467,-18001.053,-18012.77,-18019.266,-18017.863,-18021.191,-18023.668,-18026.842,-18029.008,-18029.705,-18033.701,-18036.406,-18031.812,-18031.016,-18039.973,-18041.412,-18041.908,-18049.715,-18046.55,-18042.305,-18044.037,-18040.473,-18039.24,-18044.227
-18051.55,-18053.451,-18046.613,-18042.484,-18044.22,-18043.916,-18042.562,-18046.36,-18048.256,-18047.13,-18051.771,-18054.223,-18056.936,-18064.088,-18062.836,-18061.014,-18058.566,-18054.945,-18063.115,-18064.615,-18059.576,-18063.25,-18064.51,-18064.096,-18064.104
-18059.906,-18056.72,-18057.707,-18059.305,-18061.53,-18068.094,-18072.805,-18071.613,-18071.705,-18074.752,-18075.545,-18074.28,-18074.072,-18071.633,-18069.453,-18070.262,-18067.076,-18062.906,-18064.385,-18066.305,-18063.428,-18062.521,-18067.219,-18069.96,-18074.174
-18080.885,-18075.95,-18070.127,-18075.78,-18074.662,-18071.717,-18075.19,-18077.578,-18085.268,-18081.543,-18067.102,-18070.648,-18076.598,-18074.16,-18073.45,-18069.34,-18068.79,-18076.799,-18078.883,-18077.156,-18081.21,-18077.11,-18069.293,-18076.4,-18086.512
-18087.46,-18082.576,-18084.598,-18087.607,-18076.152,-18072.559,-18078.207,-18074.133,-18075.635,-18082.213,-18082.03,-18082.643,-18081.88,-18079.746,-18078.781,-18076.104,-18075.422,-18073.146,-18069.965,-18068.623,-18066.146,-18063.717,-18063.383,-18070.47,-18076.61
-18074.02,-18072.514,-18075.043,-18080.354,-18087.623,-18089.457,-18086.871,-18085.408,-18077.578,-18074.023,-18083.318,-18083.736,-18080.77,-18084.514,-18080.145,-18073.172,-18074.922,-18076.832,-18075.102,-18079.943,-18088.117,-18090.24,-18088.424,-18083.139,-18079.697
-18083.844,-18092.951,-18095.125,-18085.594,-18083.043,-18085.473,-18083.416,-18088.209,-18096.19,-18108.33,-18122.377,-18114.494,-18098.26,-18098.969,-18101.605,-18092.588,-18080.584,-18077.086,-18080.248,-18082.295,-18084.18,-18082.664,-18080.742,-18086.084,-18087.72
-18084.445,-18083.846,-18084.98,-18086.191,-18082.66,-18082.057,-18079.668,-18072.625,-18080.28,-18089.13,-18088.117,-18087.424,-18089.01,-18090.812,-18088.83,-18092.168,-18098.852,-18097.705,-18091.146,-18084.795,-18088.07,-18090.748,-18085.44,-18087.7,-18086.393
-18080.783,-18083.787,-18081.092,-18084.582,-18092.957,-18093.197,-18105.793,-18105.988,-18091.23,-18095.465,-18097.264,-18099.842,-18107.74,-18100.703,-18098.299,-18097.67,-18087.527,-18086.262,-18091.516,-18090.63,-18089.938,-18093.238,-18092.725,-18094.445,-18095.342
-18090.588,-18091.797,-18096.908,-18104.262,-18105.207,-18099.982,-18100.627,-18099.896,-18099.531,-18098.67,-18097.275,-18098.086,-18097.77,-18097.416,-18091.303,-18090.91,-18092.621,-18086.64,-18092.842,-18100.705,-18099.143,-18099.566,-18092.758,-18081.084,-18083.184
-18089.104,-18094.736,-18100.592,-18093.445,-18093.475,-18100.162,-18097.53,-18094.27,-18092.277,-18097.953,-18090.605,-18080.568,-18093.045,-18090.203,-18083.492,-18092.148,-18098.12,-18105.309,-18106.082,-18099.436,-18094.139,-18096.182,-18100.674,-18093.055,-18084.354
-18082.701,-18087.414,-18094.037,-18088.625,-18079.957,-18083.828,-18090.463,-18088.617,-18088.033,-18096.531,-18102.215,-18097.027,-18093.44,-18092.104,-18089.223,-18094.336,-18097.928,-18093.986,-18091.246,-18087.984,-18087.303,-18093.162,-18096.871,-18097.297,-18096.184
-18092.324,-18092.906,-18090.46,-18090.738,-18104.154,-18104.82,-18094.459,-18089.844,-18087.666,-18088.598,-18093.297,-18104.385,-18110.59,-18100.988,-18093.854,-18101.498,-18104.607,-18098.12,-18096.87,-18099.316,-18105.775,-18106.201,-18098.984,-18098.496,-18096.303
-18093.592,-18092.688,-18088.004,-18080.459,-18074.662,-18078.33,-18086.674,-18094.56,-18094.414,-18088.994,-18095.592,-18106.637,-18107.76,-18102.775,-18098.219,-18092.434,-18085.03,-18088.219,-18101.957,-18105.8,-18098.621,-18090.336,-18085.916,-18091.742,-18099.93
-18104.615,-18107.271,-18107.107,-18102.146,-18091.96,-18088.303,-18091.078,-18096.123,-18103.395,-18099.39,-18092.637,-18094.068,-18094.08,-18097.654,-18101.336,-18098.635,-18098.348,-18098.346,-18098.402,-18098.457,-18097.752,-18102.676,-18109.918,-18110.074,-18100.102
-18096.793,-18099.254,-18092.906,-18092.438,-18090.508,-18083.479,-18090.648,-18098.89,-18104.709,-18110.537,-18106.828,-18104.363,-18103.08,-18101.854,-18105.828,-18104.627,-18105.363,-18108.482,-18101.766,-18099.512,-18104.543,-18101.885,-18097.195,-18098.674,-18100.15
-18102.398,-18107.596,-18110.484,-18109.139,-18106.033,-18105.4,-18105.629,-18107.83,-18107.584,-18098.885,-18094.938,-18097.66,-18101.82,-18105.693,-18107.836,-18108.494,-18099.422,-18096.973,-18111.86,-18118.926,-18116.775,-18116.746,-18112.79,-18112.31,-18117.373
-18109.588,-18102.361,-18106.645,-18106.584,-18104.213,-18098.514,-18095.887,-18101.451,-18099.582,-18100.203,-18107.25,-18107.547,-18108.748,-18109.31,-18105.877,-18104.104,-18102.285,-18104.318,-18106.873,-18108.81,-18108.746,-18102.674,-18098.984,-18095.816,-18097.117
-18098.473,-18096.22,-18094.842,-18088.629,-18094.365,-18098.443,-18091.535,-18093.537,-18092.02,-18093.457,-18103.553,-18109.422,-18105.244,-18099.521,-18103.254,-18101.6,-18098.469,-18097.213,-18097.457,-18102.299,-18096.363,-18094.426,-18100.89,-18104.943,-18114.484
-18119.799,-18110.438,-18098.22,-18096.623,-18093.262,-18087.1,-18089.451,-18093.248,-18099.154,-18099.95,-18097.287,-18099.746,-18094.52,-18087.232,-18091.49,-18103.42,-18110.535,-18108.512,-18104.406,-18102.91,-18103.482,-18104.332,-18109.18,-18106.12,-18100.291
-18108.766,-18109.877,-18108.35,-18113.45,-18117.06,-18121.967,-18117.15,-18114.994,-18118.453,-18115.803,-18113.27,-18111.418,-18111.398,-18103.21,-18099.469,-18106.56,-18108.393,-18112.924,-18108.514,-18097.957,-18096.355,-18091.414,-18087.21,-18092.01,-18096.59
-18091.62,-18087.918,-18090.371,-18091.947,-18094.346,-18092.76,-18091.242,-18093.113,-18088.918,-18083.72,-18085.56,-18087.867,-18089.28,-18094.518,-18097.684,-18096.842,-18093.24,-18089.186,-18091.807,-18099.922,-18102.318,-18096.24,-18093.55,-18090.738,-18086.832
-18092.236,-18097.82,-18095.838,-18091.848,-18092.676,-18093.78,-18092.07,-18092.309,-18088.701,-18088.666,-18094.984,-18095.004,-18093.21,-18092.61,-18091.984,-18088.762,-18088.674,-18093.266,-18086.371,-18079.074,-18078.822,-18086.65,-18104.275,-18102.512,-18090.371
-18091.629,-18088.975,-18085.33,-18090.426,-18091.799,-18094.168,-18100.738,-18102.275,-18108.338,-18115.809,-18112.123,-18106.818,-18105.639,-18108.217,-18109.516,-18103.168,-18095.398,-18093.256,-18099.803,-18106.686,-18111.066,-18115.916,-18112.646,-18106.188,-18103.77
-18105.008,-18105.084,-18102.441,-18101.197,-18096.854,-18097.031,-18100.984,-18102.76,-18105.84,-18106.531,-18109.697,-18114.268,-18117.07,-18116.076,-18109.502,-18105.305,-18105.877,-18108.217,-18104.145,-18099.842,-18099.04,-18094.453,-18093.27,-18096.889,-18105.871
-18110.832,-18103.58,-18095.787,-18093.326,-18096.723,-18093.434,-18090.219,-18097.125,-18099.295,-18105.22,-18109.664,-18105.344,-18106.523,-18108.066,-18112.158,-18119.955,-18123.172,-18119.373,-18111.652,-18113.254,-18115.492,-18107.928,-18102.686,-18100.658,-18098.842
-18098.33,-18099.828,-18101.14,-18100.916,-18103.707,-18102.467,-18098.725,-18099.117,-18096.785,-18095.793,-18099.371,-18101.678,-18102.432,-18107.922,-18114.38,-18113.062,-18108.979,-18101.844,-18097.557,-18099.018,-18097.129,-18099.43,-18102.732,-18105.287,-18111.033
-18110.535,-18111.545,-18114.186,-18112.006,-18111.094,-18107.797,-18102.639,-18101.8,-18107.51,-18113.818,-18114.602,-18112.928,-18111.668,-18114.037,-18113.3,-18113.121,-18119.83,-18118.867,-18114.14,-18113.666,-18114.133,-18108.969,-18101.758,-18105.582,-18102.955
-18099.123,-18106.312,-18103.17,-18101.588,-18107.242,-18108.982,-18110.36,-18108.693,-18110.572,-18115.252,-18114.473,-18112.652,-18111.47,-18106.805,-18103.408,-18108.258,-18109.227,-18107.934,-18117.906,-18124.525,-18117.922,-18114.94,-18118.34,-18116.742,-18117.393
-18114.705,-18106.756,-18107.967,-18105.115,-18099.965,-18103.756,-18113.871,-18118.975,-18110.79,-18113.564,-18114.87,-18104.72,-18108.36,-18109.746,-18103.156,-18097.184,-18095.777,-18102.86,-18107.326,-18108.408,-18105.973,-18108.047,-18116.588,-18118.541,-18113.885
-18106.033,-18108.012,-18114.61,-18109.266,-18102.53,-18101.938,-18101.45,-18098.57,-18099.805,-18099.275,-18099.648,-18113.258,-18117.145,-18110.389,-18109.578,-18104.674,-18101.02,-18099.893,-18095.576,-18095.248,-18096.674,-18098.77,-18101.84,-18102.604,-18101.375
-18099.008,-18097.17,-18098.521,-18100.043,-18097.717,-18101.586,-18103.54,-18098.658,-18109.566,-18117.525,-18108.21,-18104.553,-18107.053,-18111.64,-18113.834,-18112.693,-18120.398,-18127.137,-18116.281,-18101.84,-18103.467,-18109.969,-18109.963,-18107.031,-18097.492
-18093.486,-18100.031,-18101.738,-18104.275,-18105.75,-18102.467,-18101.79,-18099.777,-18102.512,-18106.59,-18103.123,-18102.695,-18105.557,-18101.396,-18098.127,-18105.35,-18105.74,-18101.25,-18102.74,-18099.96,-18097.607,-18094.486,-18094.9,-18098.814,-18095.797
-18096.852,-18095.246,-18097.797,-18108.303,-18108.965,-18111.463,-18112.514,-18108.863,-18106.79,-18104.75,-18108.936,-18105.086,-18095.145,-18095.15,-18096.455,-18100.426,-18104.793,-18108.072,-18115.328,-18108.975,-18098.281,-18096.086,-18087.676,-18085.91,-18093.93
-18096.666,-18096.865,-18099.902,-18099.809,-18091.795,-18088.82,-18088.613,-18090.334,-18096.057,-18093.96,-18091.484,-18086.863,-18083.6,-18091.094,-18095.504,-18093.498,-18093.465,-18094.73,-18088.342,-18087.361,-18093.693,-18094.006,-18095.566,-18093.826,-18093.223
-18094.043,-18090.373,-18092.654,-18094.545,-18097.914,-18102.63,-18099.357,-18095.766,-18096.568,-18097.988,-18097.387,-18099.3,-18093.502,-18083.934,-18086.398,-18079.95,-18075.92,-18083.816,-18080.29,-18079.871,-18084.457,-18084.13,-18080.336,-18075.719,-18082.945
-18090.045,-18088.043,-18089.838,-18092.416,-18090.37,-18088.346,-18087.484,-18090.494,-18092.127,-18083.078,-18077.926,-18083.035,-18086.623,-18091.05,-18101.227,-18110.87,-18111.021,-18104.553,-18100.035,-18096.285,-18093.043,-18089.309,-18084.227,-18087.256,-18094.223
-18098.826,-18099.043,-18087.1,-18081.092,-18083.303,-18081.748,-18089.898,-18096.271,-18094.299,-18093.412,-18088.666,-18088.92,-18093.395,-18093.715,-18091.879,-18086.268,-18079.553,-18078.11,-18083.846,-18086.432,-18085.3,-18089.21,-18091.525,-18092.291,-18090.688
-18085.549,-18086.438,-18088.43,-18088.951,-18089.396,-18088.17,-18086.705,-18079.658,-18077.44,-18086.143,-18087.26,-18080.688,-18079.402,-18081.07,-18084.547,-18088.166,-18085.531,-18085.285,-18086.49,-18083.73,-18084.262,-18087.42,-18091.348,-18090.703,-18091.049
-18097.55,-18093.76,-18089.012,-18090.766,-18087.44,-18092.83,-18097.076,-18088.998,-18090.541,-18094.523,-18094.984,-18094.924,-18090.318,-18085.074,-18081.12,-18086.332,-18090.04,-18089.766,-18097.266,-18100.627,-18100.146,-18097.75,-18092.072,-18087.498,-18083.936
-18081.69,-18077.184,-18078.07,-18081.162,-18081.133,-18083.066,-18079.889,-18082.709,-18088.605,-18087.816,-18089.58,-18087.86,-18086.936,-18088.648,-18090.62,-18089.166,-18081.6,-18084.63,-18090.475,-18092.506,-18092.803,-18087.342,-18086.67,-18091.945,-18099.924
-18097.83,-18086.578,-18085.299,-18085.197,-18080.688,-18075.828,-18079.926,-18091.402,-18088.809,-18083.719,-18086.178,-18088.09,-18095.084,-18099.611,-18093.162,-18085.402,-18081.836,-18084.773,-18090.781,-18091.39,-18091.863,-18091.316,-18088.309,-18089.602,-18086.906
-18081.814,-18081.994,-18079.248,-18076.9,-18080.107,-18080.936,-18084.773,-18092.95,-18092.9,-18091.127,-18097.799,-18101.75,-18099.312,-18103.652,-18107.832,-18098.496,-18088.797,-18094.6,-18096.217,-18084.59,-18085.453,-18086.285,-18083.791,-18085.816,-18077.002
-18079.729,-18092.352,-18095.338,-18091.133,-18085.275,-18088.955,-18086.545,-18086.332,-18097.717,-18098.357,-18092.701,-18087.605,-18088.893,-18093.553,-18095.266,-18096.54,-18091.604,-18088.992,-18089.357,-18087.541,-18086.656,-18086.83,-18089.684,-18086.479,-18084.9
-18093.703,-18093.676,-18089.033,-18093.664,-18098.68,-18102.664,-18104.035,-18102.209,-18103.879,-18105.89,-18111.875,-18118.69,-18118.064,-18112.047,-18101.56,-18096.678,-18096.05,-18090.664,-18086.502,-18087.766,-18087.674,-18081.09,-18080.21,-18084.115,-18083.291
-18083.264,-18082.748,-18083.49,-18085.756,-18085.521,-18086.322,-18090.416,-18094.254,-18094.14,-18096.447,-18094.604,-18090.023,-18095.887,-18101.059,-18099.334,-18092.242,-18092.28,-18101.033,-18101.922,-18102.719,-18103.803,-18099.713,-18092.65,-18087.527,-18091.111
-18095.082,-18096.229,-18093.467,-18093.023,-18097.834,-18096.346,-18099.176,-18101.607,-18096.277,-18097.691,-18092.822,-18083.87,-18089.477,-18095.959,-18092.191,-18088.895,-18092.234,-18091.463,-18091.959,-18101.008,-18099.104,-18092.717,-18096.523,-18100.336,-18104.668
-18104.541,-18098.102,-18095.367,-18094.332,-18096.244,-18095.04,-18092.027,-18092.938,-18091.41,-18094.87,-18096.787,-18093.963,-18094.156,-18092.277,-18093.992,-18097.723,-18101.088,-18102.14,-18098.871,-18102.65,-18106.348,-18103.291,-18096.611,-18093.062,-18101.492
-18106.729,-18107.494,-18117.494,-18123.225,-18117.094,-18110.182,-18105.008,-18101.684,-18097.998,-18094.559,-18099.506,-18102.86,-18099.92,-18100.56,-18099.924,-18092.154,-18083.832,-18082.604,-18082.66,-18084.389,-18088.234,-18086.354,-18087.418,-18088.23,-18085.004
-18086.316,-18087.732,-18085.898,-18079.389,-18075.8,-18082.8,-18088.744,-18086.57,-18078.586,-18072.9,-18077.68,-18084.979,-18092.275,-18092.691,-18079.84,-18073.395,-18071.053,-18076.969,-18094.588,-18095.797,-18090.111,-18086.3,-18082.113,-18086.469,-18091.703
-18096.879,-18100.73,-18095.209,-18085.764,-18084.877,-18085.564,-18082.746,-18080.166,-18077.67,-18085.58,-18087.904,-18082.893,-18087.377,-18087.287,-18088.047,-18087.31,-18082.596,-18090.46,-18093.19,-18083.318,-18078.3,-18081.691,-18081.371,-18077.889,-18083.232
-18087.762,-18094.09,-18100.28,-18094.281,-18094.916,-18098.02,-18094.523,-18095.998,-18095.844,-18095.83,-18101.23,-18099.463,-18086.771,-18082.031,-18089.318,-18090.602,-18088.932,-18088.465,-18086.26,-18089.314,-18093.898,-18095.604,-18098.016,-18096.258,-18092.627
-18096.227,-18095.812,-18089.81,-18086.303,-18081.7,-18083.482,-18090.736,-18094.768,-18097.0,-18094.322,-18085.566,-18088.514,-18096.717,-18089.203,-18091.324,-18098.125,-18093.709,-18090.775,-18081.39,-18077.547,-18077.328,-18075.027,-18077.77,-18076.545,-18080.959
-18081.969,-18078.184,-18082.203,-18082.357,-18078.752,-18076.889,-18081.752,-18081.766,-18074.754,-18079.38,-18086.078,-18088.297,-18085.363,-18082.07,-18090.736,-18090.92,-18080.303,-18081.215,-18083.428,-18082.213,-18087.654,-18093.02,-18089.479,-18081.771,-18085.35
-18092.258,-18089.645,-18087.316,-18085.115,-18085.152,-18084.285,-18079.754,-18082.072,-18080.299,-18076.758,-18079.893,-18079.23,-18080.922,-18087.066,-18090.959,-18091.246,-18085.693,-18081.746,-18080.383,-18077.016,-18078.549,-18084.043,-18082.906,-18076.697,-18078.42
-18085.174,-18087.648,-18092.979,-18097.14,-18093.51,-18094.676,-18095.06,-18088.262,-18091.832,-18096.684,-18090.43,-18089.441,-18094.096,-18096.607,-18097.504,-18091.115,-18086.375,-18092.994,-18094.287,-18088.775,-18085.166,-18087.7,-18098.908,-18099.938,-18096.736
-18098.756,-18093.041,-18087.488,-18085.992,-18087.434,-18088.086,-18084.336,-18083.715,-18086.96,-18090.148,-18086.521,-18088.182,-18095.607,-18093.52,-18093.53,-18094.936,-18099.137,-18107.408,-18105.71,-18104.082,-18104.143,-18100.42,-18102.062,-18104.25,-18101.205
-18098.018,-18093.47,-18088.42,-18088.1,-18092.146,-18093.594,-18093.564,-18097.861,-18093.746,-18090.92,-18101.922,-18109.111,-18107.82,-18095.025,-18086.523,-18087.451,-18081.564,-18088.2,-18095.182,-18089.672,-18091.053,-18090.426,-18092.943,-18099.414,-18096.104
-18090.299,-18086.518,-18090.066,-18095.758,-18093.283,-18089.943,-18092.756,-18100.336,-18103.46,-18104.059,-18106.121,-18096.07,-18088.422,-18098.87,-18102.953,-18097.496,-18088.39,-18080.555,-18089.91,-18096.664,-18094.867,-18097.021,-18092.188,-18088.488,-18088.691
-18083.521,-18085.379,-18090.693,-18086.176,-18087.16,-18094.076,-18089.686,-18089.75,-18100.633,-18108.242,-18102.967,-18084.781,-18083.814,-18094.645,-18095.041,-18098.104,-18099.252,-18098.807,-18098.58,-18098.396,-18102.4,-18095.904,-18085.904,-18084.56,-18090.787
-18096.092,-18092.559,-18089.326,-18091.064,-18097.492,-18099.78,-18101.44,-18106.738,-18102.463,-18096.361,-18091.832,-18089.44,-18087.94,-18079.65,-18082.13,-18088.307,-18084.658,-18087.838,-18093.44,-18093.262,-18085.346,-18078.459,-18088.896,-18097.541,-18098.36
-18100.977,-18098.654,-18099.484,-18102.398,-18100.383,-18100.51,-18103.705,-18107.004,-18105.043,-18099.342,-18098.596,-18100.855,-18099.463,-18098.223,-18100.197,-18097.701,-18095.16,-18096.865,-18095.98,-18096.045,-18097.943,-18098.41,-18095.77,-18095.004,-18098.719
-18100.06,-18104.506,-18102.775,-18096.402,-18099.643,-18100.305,-18103.412,-18106.701,-18104.326,-18102.707,-18096.707,-18092.973,-18092.379,-18093.338,-18096.11,-18098.537,-18100.965,-18102.242,-18108.104,-18115.0,-18119.309,-18117.014,-18108.477,-18103.46,-18100.559
-18101.5,-18106.62,-18111.096,-18104.182,-18090.344,-18088.777,-18089.15,-18089.484,-18095.996,-18098.86,-18097.031,-18091.365,-18087.914,-18088.25,-18092.422,-18099.547,-18096.992,-18092.262,-18089.379,-18084.885,-18090.037,-18097.936,-18097.957,-18097.71,-18099.08
-18097.621,-18097.412,-18095.514,-18093.707,-18098.56,-18097.305,-18096.213,-18100.709,-18098.854,-18097.303,-18094.117,-18091.701,-18094.367,-18092.428,-18096.703,-18103.998,-18102.055,-18100.89,-18099.725,-18098.713,-18098.117,-18092.795,-18093.156,-18095.406,-18092.795
-18095.195,-18097.812,-18095.602,-18096.055,-18101.117,-18102.566,-18099.062,-18098.412,-18099.033,-18101.926,-18105.352,-18102.473,-18098.871,-18097.205,-18093.92,-18089.574,-18089.576,-18096.475,-18100.33,-18096.445,-18093.97,-18096.906,-18102.459,-18103.393,-18100.623
-18102.697,-18105.105,-18105.773,-18103.672,-18098.139,-18096.754,-18100.96,-18110.29,-18118.045,-18117.79,-18115.998,-18113.316,-18106.918,-18105.322,-18108.566,-18108.201,-18105.947,-18103.86,-18104.715,-18106.197,-18104.709,-18103.156,-18098.96,-18098.713,-18101.146
-18101.191,-18103.691,-18099.545,-18100.037,-18104.957,-18099.188,-18099.4,-18100.795,-18102.988,-18110.215,-18111.623,-18112.959,-18108.6,-18103.469,-18104.52,-18107.107,-18111.078,-18105.668,-18096.455,-18093.568,-18095.545,-18100.83,-18103.664,-18103.197,-18102.826
-18102.117,-18097.799,-18098.361,-18103.86,-18103.559,-18105.291,-18105.232,-18103.393,-18107.088,-18102.498,-18099.885,-18109.889,-18116.129,-18113.658,-18110.299,-18106.82,-18099.324,-18099.305,-18101.816,-18097.363,-18098.66,-18097.826,-18098.002,-18105.023,-18103.615
-18104.193,-18106.889,-18105.525,-18105.992,-18100.086,-18095.117,-18096.996,-18098.393,-18098.883,-18099.814,-18100.713,-18097.324,-18093.213,-18091.008,-18095.707,-18101.096,-18094.586,-18094.01,-18100.293,-18105.67,-18110.58,-18103.3,-18096.38,-18099.572,-18106.486
-18114.602,-18111.55,-18101.951,-18099.424,-18095.094,-18094.826,-18105.488,-18105.314,-18101.104,-18101.441,-18096.96,-18098.1,-18097.936,-18094.572,-18097.639,-18104.828,-18109.21,-18099.523,-18092.727,-18093.604,-18089.018,-18091.332,-18100.889,-18102.518,-18101.37
-18113.057,-18120.004,-18108.203,-18099.951,-18100.326,-18099.777,-18098.006,-18101.8,-18112.955,-18119.762,-18117.836,-18109.963,-18099.334,-18089.54,-18088.91,-18100.809,-18105.645,-18107.002,-18112.6,-18108.914,-18108.26,-18108.086,-18105.133,-18106.918,-18107.953
-18115.545,-18115.69,-18114.02,-18117.492,-18109.537,-18107.729,-18104.396,-18100.822,-18105.568,-18101.307,-18103.834,-18107.824,-18101.688,-18099.37,-18100.752,-18098.268,-18094.32,-18100.768,-18104.281,-18104.66,-18110.305,-18104.053,-18098.98,-18103.39,-18105.545
-18104.6,-18101.303,-18100.627,-18100.082,-18099.164,-18100.88,-18103.943,-18102.94,-18099.205,-18104.123,-18110.658,-18109.588,-18105.537,-18104.38,-18103.506,-18101.205,-18101.03,-18102.39,-18108.062,-18111.14,-18114.658,-18125.918,-18125.543,-18110.344,-18097.705
-18093.135,-18093.213,-18092.258,-18086.406,-18084.352,-18087.53,-18090.945,-18097.857,-18098.252,-18095.516,-18095.637,-18090.596,-18089.275,-18090.34,-18093.57,-18099.045,-18096.586,-18100.293,-18103.639,-18095.57,-18097.018,-18102.857,-18102.076,-18098.496,-18095.697
-18105.33,-18113.434,-18105.615,-18101.95,-18102.36,-18100.297,-18103.557,-18104.68,-18104.678,-18106.887,-18108.402,-18107.395,-18098.797,-18096.342,-18100.195,-18098.305,-18099.678,-18103.797,-18109.998,-18116.148,-18109.62,-18102.635,-18109.514,-18117.658,-18119.195
-18117.732,-18111.738,-18108.666,-18108.246,-18105.318,-18106.314,-18099.453,-18096.027,-18101.965,-18100.73,-18111.615,-18117.863,-18109.865,-18109.107,-18102.576,-18099.17,-18107.012,-18109.287,-18103.576,-18104.113,-18106.895,-18101.906,-18103.322,-18103.232,-18100.12
-18100.457,-18092.678,-18089.91,-18098.178,-18104.15,-18105.54,-18106.82,-18106.936,-18104.396,-18105.906,-18107.883,-18107.336,-18104.23,-18097.473,-18099.627,-18102.236,-18097.898,-18101.967,-18104.807,-18101.246,-18095.924,-18089.295,-18091.688,-18093.654,-18090.75
-18090.668,-18094.646,-18101.285,-18097.521,-18094.229,-18100.898,-18104.979,-18105.41,-18101.846,-18103.2,-18110.137,-18110.666,-18106.27,-18103.863,-18104.951,-18102.729,-18099.676,-18103.572,-18111.277,-18109.889,-18104.033,-18105.107,-18107.678,-18117.281,-18116.705
-18100.674,-18103.97,-18111.684,-18104.992,-18100.86,-18099.633,-18095.36,-18094.38,-18100.984,-18103.408,-18099.752,-18095.75,-18092.27,-18096.908,-18096.4,-18090.367,-18099.07,-18105.926,-18103.545,-18103.55,-18100.445,-18097.055,-18095.838,-18092.953,-18091.611
-18088.035,-18084.201,-18088.584,-18093.219,-18096.93,-18105.816,-18106.898,-18100.762,-18099.174,-18095.621,-18096.182,-18101.096,-18100.043,-18100.74,-18098.479,-18097.854,-18103.846,-18102.336,-18100.396,-18097.475,-18093.81,-18093.967,-18091.617,-18098.908,-18104.328
-18098.383,-18099.357,-18102.578,-18103.287,-18096.305,-18088.734,-18094.762,-18094.932,-18089.906,-18092.514,-18089.154,-18083.082,-18088.154,-18091.824,-18089.598,-18091.28,-18087.459,-18087.479,-18098.977,-18103.234,-18099.387,-18086.912,-18082.582,-18095.154,-18097.223
-18096.4,-18099.545,-18095.682,-18088.371,-18082.256,-18085.164,-18088.867,-18088.096,-18088.768,-18088.082,-18088.389,-18093.537,-18098.334,-18091.707,-18082.523,-18085.047,-18094.23,-18099.586,-18098.066,-18099.223,-18100.498,-18099.682,-18096.027,-18085.75,-18083.832
-18087.545,-18089.645,-18092.861,-18094.02,-18094.398,-18091.588,-18091.605,-18098.348,-18103.086,-18101.285,-18097.213,-18098.166,-18100.082,-18097.504,-18091.555,-18090.592,-18096.436,-18099.35,-18100.12,-18100.322,-18096.766,-18093.398,-18093.336,-18092.615,-18090.703
-18085.28,-18082.564,-18091.07,-18092.047,-18088.912,-18096.62,-18095.293,-18081.588,-18072.885,-18067.14,-18066.062,-18080.56,-18088.033,-18083.076,-18086.82,-18089.75,-18093.697,-18096.432,-18086.676,-18079.576,-18083.066,-18090.068,-18090.867,-18089.846,-18091.836
-18092.316,-18092.547,-18093.984,-18094.453,-18093.22,-18093.867,-18089.996,-18087.715,-18087.504,-18082.059,-18087.299,-18090.9,-18087.617,-18088.611,-18089.488,-18090.92,-18085.77,-18085.303,-18093.104,-18098.39,-18101.475,-18092.434,-18088.316,-18097.479,-18100.412
-18103.893,-18108.111,-18107.125,-18107.674,-18104.973,-18104.072,-18110.975,-18107.14,-18096.715,-18093.309,-18085.445,-18079.438,-18087.078,-18095.254,-18093.965,-18089.002,-18082.688,-18078.541,-18081.059,-18080.38,-18078.562,-18083.484,-18088.596,-18088.416,-18089.443
-18095.85,-18098.973,-18098.406,-18090.664,-18083.875,-18092.14,-18093.715,-18085.795,-18091.533,-18101.248,-18097.062,-18090.793,-18089.723,-18086.576,-18084.607,-18086.924,-18093.324,-18094.564,-18086.527,-18084.932,-18090.258,-18091.666,-18092.121,-18093.549,-18094.818
-18096.826,-18095.162,-18097.229,-18101.389,-18095.08,-18094.371,-18099.402,-18098.666,-18093.379,-18085.764,-18091.838,-18096.586,-18089.025,-18089.025,-18089.031,-18086.02,-18088.91,-18093.432,-18094.662,-18095.984,-18091.195,-18080.707,-18086.05,-18092.748,-18087.402
-18087.037,-18089.484,-18091.238,-18094.072,-18096.566,-18101.076,-18104.004,-18098.338,-18088.666,-18086.783,-18094.314,-18100.932,-18098.066,-18093.043,-18094.78,-18097.14,-18095.02,-18092.92,-18094.67,-18097.137,-18095.299,-18091.004,-18089.89,-18090.693,-18088.275
-18088.79,-18095.18,-18096.576,-18093.176,-18090.557,-18090.447,-18096.0,-18098.293,-18092.768,-18093.81,-18096.83,-18094.863,-18101.111,-18098.121,-18085.889,-18087.5,-18084.547,-18081.986,-18083.654,-18079.297,-18085.742,-18090.629,-18084.006,-18075.377,-18075.393
-18083.861,-18084.127,-18082.875,-18081.475,-18085.451,-18092.074,-18088.205,-18091.924,-18094.754,-18092.463,-18094.316,-18089.951,-18091.377,-18099.732,-18097.275,-18090.572,-18089.9,-18085.82,-18083.072,-18087.068,-18087.12,-18090.693,-18093.666,-18090.447,-18089.203
-18086.535,-18081.455,-18079.336,-18085.908,-18086.23,-18080.006,-18082.15,-18084.512,-18090.982,-18094.432,-18090.38,-18093.154,-18098.928,-18100.273,-18091.084,-18083.451,-18084.29,-18083.04,-18081.023,-18079.81,-18079.877,-18080.26,-18085.486,-18086.383,-18080.219
-18080.781,-18077.723,-18079.424,-18083.684,-18077.271,-18078.555,-18087.863,-18097.783,-18099.816,-18094.525,-18092.787,-18091.244,-18086.895,-18082.148,-18084.504,-18083.885,-18078.197,-18081.037,-18085.953,-18089.404,-18089.635,-18084.191,-18082.176,-18089.5,-18089.629
-18079.77,-18083.928,-18089.318,-18088.055,-18097.861,-18102.262,-18091.516,-18077.055,-18065.078,-18063.814,-18071.844,-18083.945,-18095.178,-18097.283,-18095.486,-18098.494,-18099.295,-18094.47,-18095.338,-18104.104,-18110.238,-18103.652,-18087.734,-18076.883,-18072.318
-18073.984,-18084.611,-18087.008,-18081.258,-18085.389,-18085.027,-18080.672,-18090.531,-18094.227,-18085.178,-18081.668,-18082.668,-18084.441,-18082.523,-18077.607,-18081.016,-18083.996,-18076.623,-18074.484,-18085.188,-18091.92,-18087.533,-18080.047,-18079.303,-18090.508
-18093.5,-18087.283,-18096.482,-18106.729,-18104.705,-18103.242,-18097.11,-18091.455,-18095.768,-18091.531,-18088.771,-18095.574,-18094.533,-18095.406,-18096.375,-18093.064,-18094.857,-18095.947,-18095.18,-18093.646,-18089.61,-18089.516,-18094.379,-18092.12,-18085.537
-18086.59,-18089.885,-18088.758,-18084.191,-18081.828,-18084.92,-18092.885,-18102.506,-18108.996,-18107.438,-18096.418,-18095.234,-18100.941,-18098.078,-18101.46,-18101.74,-18097.195,-18101.781,-18100.846,-18098.213,-18097.703,-18093.46,-18091.617,-18089.553,-18090.02
-18096.938,-18103.535,-18103.162,-18095.854,-18091.623,-18092.766,-18089.51,-18084.107,-18083.596,-18083.443,-18087.08,-18092.484,-18092.414,-18096.424,-18097.842,-18090.611,-18084.021,-18082.068,-18085.27,-18084.326,-18087.592,-18095.85,-18091.908,-18084.727,-18086.34
-18093.791,-18091.998,-18087.756,-18090.205,-18093.861,-18105.666,-18108.584,-18106.104,-18107.977,-18101.727,-18100.84,-18095.357,-18087.361,-18089.043,-18084.275,-18085.26,-18086.705,-18083.203,-18090.78,-18092.7,-18089.033,-18091.502,-18093.38,-18093.914,-18093.52
-18093.887,-18092.527,-18092.066,-18095.834,-18093.889,-18091.02,-18090.604,-18088.994,-18088.871,-18088.188,-18093.113,-18098.379,-18095.516,-18092.191,-18091.645,-18094.701,-18091.82,-18088.545,-18091.19,-18086.033,-18084.674,-18087.652,-18091.26,-18098.709,-18094.31
-18092.867,-18097.072,-18096.152,-18097.768,-18090.877,-18091.629,-18100.871,-18097.65,-18103.916,-18115.207,-18112.5,-18102.025,-18098.008,-18103.377,-18104.0,-18103.225,-18099.479,-18098.326,-18104.916,-18102.14,-18098.541,-18094.57,-18093.059,-18099.328,-18097.059
-18098.273,-18101.273,-18096.453,-18092.041,-18087.387,-18091.133,-18095.463,-18090.83,-18090.018,-18095.22,-18097.0,-18093.064,-18092.957,-18094.596,-18093.953,-18093.88,-18092.574,-18092.621,-18094.38,-18096.414,-18100.09,-18105.21,-18104.846,-18100.719,-18099.453
-18097.867,-18102.945,-18106.81,-18102.416,-18101.676,-18098.166,-18097.209,-18105.328,-18109.176,-18107.6,-18106.156,-18105.09,-18103.23,-18102.357,-18103.617,-18114.637,-18128.729,-18124.945,-18116.074,-18114.791,-18115.814,-18116.404,-18113.893,-18114.254,-18113.088
-18108.959,-18110.19,-18111.17,-18110.266,-18108.91,-18102.186,-18093.496,-18091.959,-18091.41,-18088.943,-18092.137,-18094.385,-18093.088,-18093.338,-18093.912,-18092.807,-18091.127,-18088.77,-18088.482,-18093.102,-18092.17,-18088.533,-18092.39,-18094.375,-18094.494
-18098.955,-18099.582,-18101.004,-18099.352,-18084.947,-18082.916,-18088.525,-18087.967,-18090.193,-18087.863,-18091.027,-18095.445,-18090.076,-18085.654,-18081.244,-18079.887,-18082.832,-18090.773,-18101.441,-18103.164,-18098.547,-18096.758,-18099.285,-18100.777,-18098.002
-18096.436,-18099.256,-18099.402,-18094.443,-18092.488,-18099.203,-18105.488,-18100.951,-18095.79,-18098.014,-18100.15,-18095.771,-18094.225,-18106.773,-18114.307,-18106.947,-18103.082,-18104.162,-18103.299,-18102.605,-18101.926,-18099.084,-18102.654,-18109.764,-18106.035
-18103.684,-18110.107,-18113.408,-18106.223,-18100.367,-18103.54,-18102.928,-18111.205,-18118.326,-18105.27,-18094.018,-18083.236,-18081.629,-18089.104,-18086.408,-18090.049,-18092.705,-18094.773,-18101.0,-18095.484,-18096.422,-18098.135,-18093.973,-18098.068,-18097.408
-18094.668,-18095.318,-18098.025,-18109.938,-18116.62,-18106.37,-18095.53,-18092.611,-18090.562,-18091.088,-18097.346,-18103.076,-18101.484,-18097.229,-18095.477,-18092.477,-18093.15,-18096.52,-18092.18,-18092.105,-18095.58,-18087.076,-18089.828,-18104.887,-18103.828
-18096.584,-18092.463,-18094.045,-18102.156,-18106.436,-18110.1,-18106.842,-18096.791,-18092.445,-18093.133,-18100.42,-18103.236,-18097.352,-18093.889,-18088.566,-18083.2,-18084.998,-18092.998,-18100.654,-18102.139,-18101.133,-18098.973,-18098.57,-18097.176,-18091.629
-18094.264,-18097.332,-18093.232,-18093.09,-18092.992,-18092.045,-18093.707,-18092.385,-18087.809,-18085.346,-18081.14,-18076.697,-18086.893,-18097.291,-18094.51,-18089.342,-18083.965,-18089.012,-18097.03,-18094.855,-18100.77,-18110.568,-18110.443,-18108.98,-18107.334
-18105.207,-18110.002,-18112.7,-18103.197,-18096.037,-18097.32,-18101.037,-18103.723,-18099.746,-18099.305,-18101.709,-18094.422,-18091.613,-18092.041,-18082.293,-18083.414,-18095.697,-18094.11,-18091.621,-18094.455,-18095.055,-18101.469,-18100.078,-18095.055,-18098.615
-18095.43,-18092.162,-18095.13,-18100.672,-18106.38,-18107.816,-18108.852,-18107.795,-18104.592,-18099.098,-18098.0,-18102.32,-18101.62,-18102.412,-18103.139,-18104.607,-18105.9,-18104.719,-18112.77,-18113.352,-18105.69,-18107.572,-18112.543,-18116.727,-18114.207
-18109.768,-18107.791,-18101.996,-18099.604,-18098.764,-18098.936,-18101.074,-18098.87,-18100.908,-18099.994,-18093.111,-18097.549,-18096.182,-18087.969,-18092.615,-18098.895,-18105.13,-18106.965,-18102.021,-18098.71,-18095.205,-18094.207,-18089.594,-18089.357,-18093.686
-18091.879,-18095.574,-18093.244,-18086.777,-18088.518,-18090.082,-18090.822,-18082.576,-18076.17,-18082.473,-18086.504,-18089.26,-18087.22,-18081.55,-18083.176,-18081.53,-18080.707,-18088.693,-18094.502,-18099.088,-18104.531,-18104.793,-18097.967,-18091.441,-18096.137
-18101.121,-18098.428,-18099.52,-18095.857,-18088.209,-18088.205,-18091.723,-18102.367,-18105.076,-18098.242,-18100.967,-18101.137,-18101.982,-18104.889,-18102.29,-18106.148,-18102.902,-18092.22,-18092.06,-18091.75,-18089.867,-18089.367,-18087.303,-18086.986,-18080.775
-18075.027,-18079.268,-18081.428,-18084.23,-18084.443,-18078.377,-18079.453,-18077.367,-18073.299,-18075.236,-18077.416,-18081.506,-18077.684,-18074.234,-18081.746,-18086.31,-18085.172,-18082.152,-18081.76,-18080.34,-18075.016,-18074.121,-18076.787,-18078.463,-18080.184
-18083.135,-18079.455,-18069.662,-18073.32,-18086.553,-18086.441,-18078.834,-18074.57,-18071.95,-18075.34,-18076.963,-18073.771,-18075.477,-18081.154,-18086.465,-18085.83,-18085.033,-18084.027,-18080.957,-18083.271,-18080.057,-18075.822,-18074.64,-18071.234,-18071.152
-18067.627,-18067.252,-18070.467,-18071.45,-18077.324,-18082.877,-18086.76,-18083.604,-18078.072,-18081.783,-18078.336,-18071.371,-18074.799,-18074.59,-18070.266,-18066.371,-18063.273,-18067.111,-18067.316,-18066.791,-18076.703,-18083.336,-18075.646,-18066.943,-18067.969
-18066.213,-18062.926,-18062.584,-18066.1,-18075.014,-18073.346,-18063.87,-18054.975,-18055.596,-18065.896,-18064.488,-18061.217,-18063.074,-18061.184,-18063.914,-18069.438,-18068.61,-18066.428,-18065.863,-18066.209,-18070.133,-18069.0,-18068.361,-18073.463,-18071.969
-18067.791,-18064.367,-18069.219,-18076.998,-18072.88,-18076.719,-18086.953,-18080.14,-18067.357,-18065.287,-18068.61,-18070.088,-18066.91,-18060.898,-18063.102,-18070.61,-18072.879,-18069.209,-18062.105,-18057.906,-18059.102,-18062.12,-18063.973,-18067.98,-18068.75
-18064.201,-18070.105,-18077.025,-18072.967,-18069.133,-18070.488,-18074.9,-18077.232,-18076.455,-18073.39,-18070.682,-18071.102,-18067.59,-18066.848,-18074.736,-18068.967,-18057.902,-18064.486,-18068.979,-18068.775,-18070.412,-18064.455,-18057.854,-18056.336,-18062.564
-18069.637,-18072.174,-18074.18,-18070.145,-18064.53,-18060.459,-18058.945,-18063.129,-18064.9,-18063.934,-18062.188,-18058.934,-18055.916,-18056.025,-18064.75,-18072.473,-18069.66,-18069.73,-18075.248,-18074.295,-18072.213,-18071.283,-18065.963,-18064.854,-18067.26
-18066.736,-18067.041,-18063.562,-18060.418,-18063.879,-18062.998,-18064.438,-18078.41,-18087.508,-18076.84,-18062.215,-18057.725,-18056.445,-18057.068,-18056.764,-18057.604,-18058.604,-18056.303,-18060.596,-18058.924,-18052.639,-18057.555,-18061.035,-18064.361,-18072.844
-18071.875,-18064.47,-18062.219,-18063.723,-18068.223,-18068.326,-18066.756,-18069.691,-18068.75,-18069.701,-18073.35,-18072.271,-18070.035,-18065.271,-18060.709,-18063.773,-18063.791,-18059.639,-18063.092,-18066.953,-18067.08,-18067.123,-18069.076,-18070.217,-18072.193
-18077.584,-18074.27,-18069.018,-18065.65,-18063.361,-18070.738,-18070.498,-18065.025,-18066.658,-18068.541,-18075.049,-18081.084,-18085.807,-18089.701,-18082.14,-18069.543,-18062.57,-18067.744,-18072.285,-18068.008,-18070.297,-18073.576,-18073.236,-18068.373,-18061.5
-18069.26,-18072.902,-18064.123,-18061.088,-18059.416,-18064.438,-18070.676,-18065.09,-18064.812,-18069.928,-18066.273,-18061.686,-18061.39,-18058.096,-18057.273,-18060.47,-18058.262,-18056.89,-18063.201,-18067.646,-18063.764,-18061.58,-18062.559,-18063.828,-18065.936
-18065.691,-18070.19,-18072.834,-18070.895,-18069.219,-18061.879,-18063.164,-18069.72,-18070.973,-18072.99,-18068.34,-18066.535,-18070.232,-18066.791,-18067.238,-18075.96,-18084.086,-18082.064,-18071.338,-18067.955,-18068.344,-18068.324,-18075.82,-18080.365,-18077.016
-18070.36,-18061.062,-18059.441,-18066.21,-18069.121,-18066.719,-18067.006,-18067.988,-18066.355,-18068.322,-18071.406,-18070.863,-18066.809,-18066.318,-18073.182,-18077.375,-18078.1,-18076.135,-18072.006,-18073.488,-18075.34,-18071.96,-18073.027,-18079.025,-18079.975
-18073.992,-18068.639,-18074.977,-18080.76,-18079.092,-18080.71,-18075.92,-18071.74,-18071.559,-18067.984,-18071.762,-18073.018,-18067.738,-18065.613,-18069.729,-18076.69,-18076.951,-18072.92,-18069.436,-18076.871,-18093.482,-18097.865,-18088.414,-18077.05,-18073.922
-18082.62,-18089.543,-18087.135,-18083.633,-18080.42,-18079.826,-18078.709,-18074.553,-18076.135,-18073.975,-18069.877,-18075.377,-18079.523,-18077.533,-18071.393,-18062.645,-18056.043,-18060.492,-18073.219,-18073.342,-18064.9,-18063.166,-18066.256,-18066.92,-18061.611
-18063.623,-18073.598,-18082.012,-18086.195,-18075.94,-18070.332,-18080.32,-18081.326,-18077.734,-18076.297,-18073.998,-18073.996,-18074.033,-18079.002,-18083.46,-18084.01,-18085.584,-18084.121,-18081.268,-18082.594,-18086.959,-18086.26,-18084.959,-18088.033,-18091.873
-18087.557,-18078.947,-18087.842,-18093.65,-18087.602,-18084.482,-18075.775,-18071.15,-18068.725,-18066.295,-18072.717,-18080.47,-18085.768,-18085.006,-18079.838,-18070.262,-18065.11,-18074.887,-18081.688,-18081.393,-18082.447,-18082.28,-18086.588,-18090.621,-18086.963
-18084.645,-18077.271,-18068.496,-18066.424,-18065.32,-18080.1,-18092.617,-18083.59,-18074.291,-18069.648,-18076.121,-18082.58,-18075.746,-18073.082,-18072.61,-18067.814,-18071.387,-18078.389,-18077.29,-18084.658,-18090.805,-18085.117,-18082.75,-18071.77,-18066.928
-18078.535,-18083.78,-18082.81,-18079.682,-18076.875,-18076.318,-18079.883,-18080.137,-18076.568,-18076.29,-18070.322,-18070.725,-18078.744,-18077.906,-18072.285,-18068.66,-18071.912,-18078.602,-18082.744,-18080.713,-18079.809,-18081.41,-18073.928,-18074.04,-18086.854
-18092.598,-18090.63,-18087.63,-18083.242,-18079.295,-18078.904,-18081.475,-18089.252,-18091.191,-18081.201,-18080.07,-18087.031,-18086.656,-18084.03,-18082.092,-18078.66,-18075.434,-18077.56,-18085.723,-18082.3,-18073.201,-18074.818,-18077.44,-18082.0,-18080.719
-18073.098,-18073.893,-18074.215,-18078.701,-18083.762,-18077.611,-18075.656,-18079.37,-18081.416,-18079.045,-18076.22,-18079.408,-18077.512,-18077.525,-18085.842,-18085.715,-18084.463,-18084.033,-18079.2,-18080.12,-18079.41,-18080.67,-18090.12,-18093.738,-18089.29
-18081.59,-18076.639,-18075.389,-18077.035,-18078.387,-18076.018,-18075.441,-18072.34,-18069.08,-18073.596,-18082.912,-18085.504,-18079.37,-18079.52,-18077.834,-18070.445,-18070.615,-18077.262,-18088.826,-18099.186,-18096.469,-18084.197,-18078.562,-18074.744,-18072.035
-18078.953,-18079.344,-18076.492,-18076.387,-18076.203,-18082.154,-18083.86,-18083.94,-18086.102,-18084.229,-18084.803,-18085.725,-18084.523,-18083.248,-18079.729,-18077.111,-18082.201,-18087.955,-18082.541,-18076.12,-18081.1,-18088.771,-18091.098,-18092.002,-18088.05
-18087.758,-18095.943,-18090.438,-18080.455,-18076.033,-18070.838,-18074.732,-18079.068,-18081.84,-18083.656,-18081.08,-18088.21,-18094.178,-18093.066,-18094.887,-18094.408,-18090.895,-18084.482,-18077.97,-18074.455,-18074.146,-18075.947,-18077.83,-18087.514,-18091.783
-18078.162,-18070.586,-18074.607,-18081.184,-18088.47,-18085.77,-18079.512,-18079.166,-18077.91,-18075.56,-18079.31,-18082.748,-18076.47,-18072.887,-18075.008,-18080.537,-18085.498,-18079.967,-18077.4,-18078.436,-18073.533,-18070.346,-18071.143,-18071.14,-18076.398
-18084.465,-18080.488,-18083.104,-18092.059,-18085.678,-18085.635,-18089.299,-18079.36,-18075.826,-18078.502,-18078.482,-18081.66,-18080.465,-18079.729,-18084.705,-18081.545,-18080.514,-18091.938,-18096.262,-18089.473,-18084.031,-18080.016,-18075.684,-18071.355,-18072.895
-18080.248,-18083.053,-18082.365,-18082.607,-18088.248,-18090.379,-18085.266,-18087.072,-18088.092,-18084.732,-18077.93,-18072.004,-18077.623,-18080.951,-18080.842,-18082.129,-18082.043,-18083.146,-18082.576,-18082.416,-18083.66,-18087.096,-18091.389,-18092.693,-18092.084
-18090.197,-18084.324,-18076.4,-18077.191,-18081.703,-18088.09,-18097.615,-18098.97,-18097.979,-18100.445,-18105.127,-18109.676,-18109.795,-18107.48,-18105.29,-18101.748,-18095.256,-18095.129,-18095.303,-18094.328,-18103.482,-18104.467,-18098.418,-18099.139,-18100.096
-18098.969,-18095.691,-18093.682,-18089.225,-18084.527,-18083.44,-18079.05,-18077.771,-18076.52,-18073.834,-18076.688,-18076.588,-18078.447,-18080.246,-18074.959,-18077.9,-18078.928,-18073.47,-18077.99,-18080.04,-18077.332,-18077.686,-18080.129,-18083.953,-18076.879
-18067.3,-18068.592,-18067.195,-18062.402,-18066.254,-18075.7,-18080.166,-18078.607,-18080.955,-18082.02,-18076.611,-18077.25,-18075.803,-18070.955,-18072.389,-18071.545,-18071.707,-18075.414,-18082.129,-18086.432,-18079.764,-18073.715,-18071.799,-18073.691,-18078.65
-18080.018,-18078.418,-18076.66,-18077.502,-18079.076,-18085.81,-18087.197,-18077.975,-18084.633,-18086.158,-18069.613,-18072.426,-18079.547,-18074.82,-18077.436,-18082.78,-18083.123,-18081.154,-18082.516,-18085.793,-18090.148,-18096.283,-18095.064,-18090.69,-18088.867
-18090.93,-18092.14,-18088.865,-18091.713,-18091.824,-18082.625,-18078.744,-18084.377,-18085.234,-18079.744,-18082.344,-18084.033,-18084.4,-18090.264,-18089.45,-18086.387,-18085.9,-18087.576,-18090.328,-18087.486,-18088.652,-18092.387,-18087.617,-18077.074,-18070.95
-18077.549,-18079.488,-18077.186,-18083.69,-18082.57,-18080.604,-18085.24,-18082.518,-18079.36,-18082.35,-18084.525,-18084.451,-18083.22,-18075.979,-18069.883,-18077.637,-18085.271,-18081.271,-18078.816,-18080.604,-18081.568,-18084.35,-18083.203,-18076.998,-18075.387
-18077.363,-18077.27,-18074.205,-18073.887,-18079.268,-18078.254,-18073.463,-18074.969,-18072.45,-18074.383,-18083.377,-18080.34,-18079.572,-18084.008,-18081.688,-18084.787,-18096.129,-18105.549,-18100.203,-18087.76,-18079.678,-18074.07,-18073.223,-18068.977,-18070.842
-18081.398,-18082.494,-18078.697,-18077.152,-18085.426,-18092.984,-18086.953,-18080.406,-18077.955,-18081.023,-18083.512,-18086.387,-18095.805,-18096.188,-18091.541,-18089.71,-18083.922,-18081.098,-18085.52,-18090.793,-18091.506,-18085.293,-18077.797,-18080.479,-18087.31
-18090.146,-18089.406,-18081.537,-18076.51,-18075.771,-18074.184,-18071.54,-18068.723,-18074.965,-18078.8,-18081.03,-18086.227,-18080.564,-18078.621,-18084.258,-18088.941,-18090.055,-18084.506,-18082.363,-18081.406,-18083.102,-18087.424,-18084.234,-18078.219,-18070.715
-18062.9,-18061.002,-18066.693,-18069.268,-18067.834,-18075.281,-18083.51,-18084.822,-18079.346,-18074.412,-18078.182,-18081.314,-18079.924,-18075.707,-18071.09,-18071.11,-18075.19,-18072.135,-18065.467,-18067.379,-18067.734,-18071.066,-18079.809,-18087.297,-18090.117
-18080.887,-18079.06,-18080.621,-18076.527,-18081.057,-18083.674,-18081.564,-18075.99,-18072.098,-18077.252,-18082.482,-18086.775,-18086.967,-18084.922,-18084.145,-18077.148,-18070.9,-18076.07,-18083.002,-18079.025,-18068.998,-18066.256,-18071.838,-18070.771,-18066.316
-18070.66,-18069.68,-18060.932,-18058.244,-18061.1,-18068.717,-18073.258,-18068.693,-18066.01,-18062.445,-18057.723,-18062.639,-18072.291,-18077.043,-18072.309,-18066.506,-18070.1,-18075.674,-18074.824,-18078.133,-18088.928,-18085.275,-18074.299,-18074.752,-18074.277
-18073.695,-18075.734,-18074.395,-18074.344,-18072.812,-18068.682,-18070.49,-18077.0,-18078.256,-18083.623,-18091.146,-18081.902,-18076.268,-18080.291,-18078.197,-18080.693,-18086.285,-18086.049,-18079.586,-18070.736,-18068.273,-18069.404,-18072.84,-18076.611,-18073.775
-18075.344,-18086.05,-18091.492,-18087.469,-18079.465,-18073.566,-18076.326,-18078.2,-18072.756,-18077.283,-18084.637,-18082.16,-18082.922,-18084.99,-18087.047,-18089.256,-18084.55,-18083.031,-18085.762,-18085.348,-18082.893,-18078.688,-18078.752,-18078.379,-18075.027
-18078.59,-18081.385,-18078.365,-18072.418,-18069.715,-18072.639,-18070.9,-18068.506,-18069.21,-18071.236,-18073.725,-18072.723,-18072.967,-18077.678,-18079.008,-18073.66,-18078.043,-18089.492,-18091.705,-18089.623,-18084.836,-18084.264,-18086.559,-18081.193,-18080.146
-18087.15,-18089.494,-18082.834,-18078.215,-18077.023,-18075.328,-18080.416,-18080.092,-18077.7,-18083.088,-18075.045,-18066.72,-18073.324,-18079.785,-18080.99,-18074.523,-18072.613,-18075.7,-18071.576,-18069.271,-18071.549,-18074.117,-18074.227,-18074.271,-18077.592
-18082.443,-18085.836,-18085.236,-18094.213,-18107.799,-18105.203,-18097.672,-18089.879,-18080.727,-18085.688,-18091.695,-18089.984,-18094.58,-18095.523,-18096.36,-18103.184,-18098.258,-18089.484,-18087.822,-18089.03,-18094.246,-18099.166,-18098.623,-18097.053,-18096.078
-18090.754,-18086.227,-18089.6,-18095.367,-18092.088,-18084.547,-18085.727,-18085.121,-18083.928,-18087.527,-18088.22,-18091.57,-18090.238,-18088.777,-18092.293,-18090.082,-18089.2,-18084.129,-18079.625,-18081.697,-18085.973,-18094.4,-18094.295,-18091.172,-18088.588
-18088.75,-18092.85,-18085.305,-18073.562,-18063.9,-18072.617,-18089.121,-18080.91,-18076.59,-18086.15,-18089.637,-18086.531,-18086.932,-18093.516,-18090.422,-18084.771,-18086.602,-18086.643,-18088.312,-18093.572,-18087.688,-18080.627,-18084.623,-18080.006,-18077.934
-18089.11,-18091.338,-18085.787,-18088.207,-18089.107,-18078.943,-18076.807,-18078.87,-18077.428,-18079.693,-18078.996,-18082.104,-18085.084,-18081.605,-18080.57,-18077.727,-18075.303,-18075.908,-18074.555,-18074.104,-18073.729,-18067.906,-18071.363,-18090.285,-18092.596
-18078.354,-18072.115,-18068.13,-18065.373,-18068.492,-18072.914,-18077.535,-18083.842,-18086.588,-18086.01,-18083.957,-18076.775,-18076.768,-18078.576,-18073.723,-18075.08,-18074.865,-18070.537,-18070.33,-18073.807,-18081.857,-18084.764,-18078.57,-18076.203,-18075.71
-18068.996,-18065.605,-18071.062,-18077.992,-18081.307,-18081.158,-18077.875,-18075.592,-18077.602,-18080.576,-18082.57,-18077.682,-18072.238,-18077.615,-18085.463,-18092.125,-18091.986,-18084.14,-18079.992,-18075.23,-18074.668,-18083.418,-18091.475,-18100.133,-18102.42
-18092.414,-18085.225,-18082.719,-18079.803,-18086.256,-18095.627,-18091.975,-18083.715,-18081.303,-18085.172,-18087.68,-18082.24,-18081.99,-18086.61,-18085.113,-18087.045,-18093.193,-18094.889,-18094.684,-18094.613,-18093.97,-18094.014,-18094.775,-18093.36,-18094.9
-18099.986,-18096.773,-18097.03,-18103.506,-18103.053,-18106.951,-18105.83,-18097.816,-18099.828,-18102.348,-18104.33,-18101.838,-18095.857,-18096.31,-18099.316,-18106.31,-18107.898,-18097.482,-18080.715,-18077.064,-18089.957,-18090.332,-18088.979,-18093.22,-18093.273
-18092.688,-18083.648,-18078.963,-18078.072,-18071.094,-18068.879,-18072.512,-18078.834,-18081.383,-18084.24,-18082.951,-18077.229,-18078.389,-18075.434,-18076.217,-18083.34,-18086.246,-18085.348,-18079.69,-18078.1,-18078.143,-18078.662,-18076.918,-18073.604,-18078.525
-18076.133,-18073.693,-18078.838,-18081.457,-18086.43,-18082.613,-18077.875,-18080.203,-18076.994,-18076.914,-18078.61,-18081.246,-18084.39,-18077.922,-18075.371,-18082.121,-18088.455,-18092.465,-18092.83,-18090.348,-18082.287,-18080.594,-18093.05,-18094.29,-18089.31
-18090.938,-18086.227,-18084.082,-18084.666,-18082.375,-18087.146,-18094.023,-18092.832,-18087.06,-18088.727,-18093.71,-18091.963,-18089.807,-18089.812,-18088.89,-18087.195,-18088.553,-18093.062,-18092.438,-18093.432,-18101.133,-18104.777,-18103.494,-18098.27,-18098.725
-18107.59,-18106.803,-18101.955,-18104.031,-18103.678,-18099.164,-18097.227,-18096.873,-18097.582,-18096.148,-18090.129,-18092.271,-18095.295,-18092.2,-18101.83,-18111.484,-18107.049,-18101.57,-18097.95,-18102.383,-18108.654,-18106.104,-18103.97,-18104.09,-18109.984
-18113.84,-18107.35,-18103.422,-18097.096,-18086.617,-18085.473,-18090.197,-18092.041,-18092.57,-18093.477,-18093.441,-18096.896,-18101.326,-18098.354,-18096.775,-18101.049,-18099.895,-18094.303,-18094.045,-18099.06,-18097.389,-18092.389,-18093.758,-18091.018,-18088.143
-18089.72,-18087.975,-18087.764,-18089.342,-18085.814,-18078.768,-18080.586,-18085.574,-18081.836,-18086.023,-18099.377,-18102.604,-18094.074,-18085.252,-18084.553,-18087.719,-18086.775,-18081.95,-18079.686,-18080.957,-18082.82,-18088.068,-18095.299,-18096.361,-18089.848
-18082.777,-18081.271,-18084.49,-18080.594,-18076.283,-18083.855,-18081.299,-18075.57,-18084.172,-18090.375,-18094.67,-18095.105,-18092.71,-18095.637,-18091.855,-18084.176,-18082.467,-18083.791,-18081.059,-18074.7,-18074.875,-18080.041,-18080.502,-18079.436,-18087.057
-18095.336,-18092.895,-18091.107,-18095.621,-18096.555,-18094.455,-18094.225,-18096.066,-18097.75,-18096.062,-18092.82,-18093.436,-18102.162,-18107.38,-18100.984,-18093.07,-18089.812,-18093.111,-18094.08,-18094.35,-18095.822,-18091.875,-18096.223,-18100.27,-18101.197
-18104.893,-18095.312,-18089.896,-18094.668,-18094.271,-18093.477,-18092.877,-18091.527,-18089.266,-18088.639,-18089.27,-18092.605,-18096.066,-18092.88,-18093.115,-18090.38,-18086.56,-18089.584,-18086.9,-18088.78,-18097.236,-18100.746,-18100.625,-18100.795,-18100.672
-18095.92,-18095.727,-18099.059,-18098.275,-18092.754,-18083.553,-18086.96,-18096.518,-18098.746,-18101.88,-18099.86,-18092.066,-18085.617,-18083.766,-18084.455,-18078.27,-18073.111,-18072.172,-18076.002,-18081.643,-18079.32,-18081.797,-18088.379,-18087.883,-18084.297
-18082.902,-18085.27,-18089.135,-18089.172,-18084.965,-18087.87,-18091.682,-18087.83,-18084.459,-18084.236,-18085.525,-18084.871,-18088.428,-18091.291,-18085.049,-18080.955,-18085.334,-18097.959,-18101.627,-18091.922,-18083.715,-18083.48,-18095.988,-18097.475,-18089.143
-18094.805,-18096.02,-18093.896,-18097.828,-18100.193,-18102.104,-18101.885,-18102.713,-18099.475,-18091.18,-18087.71,-18083.828,-18085.068,-18093.61,-18093.645,-18087.883,-18086.74,-18087.82,-18084.18,-18079.238,-18080.066,-18079.379,-18080.053,-18084.89,-18082.664
-18085.703,-18088.572,-18081.787,-18088.592,-18089.047,-18081.064,-18093.176,-18100.521,-18094.562,-18086.97,-18086.309,-18097.014,-18098.2,-18091.656,-18088.645,-18086.736,-18082.285,-18076.822,-18079.695,-18087.998,-18099.969,-18106.936,-18099.305,-18096.404,-18100.016
-18090.945,-18082.365,-18082.137,-18081.217,-18086.53,-18085.39,-18081.508,-18089.781,-18097.252,-18102.79,-18095.635,-18084.709,-18080.078,-18072.287,-18076.205,-18074.947,-18066.682,-18069.883,-18075.71,-18086.7,-18090.287,-18087.074,-18090.77,-18090.057,-18087.479
-18090.316,-18095.65,-18096.885,-18093.318,-18092.754,-18091.457,-18087.055,-18084.717,-18082.682,-18080.57,-18081.328,-18081.252,-18081.373,-18084.875,-18082.25,-18075.861,-18079.586,-18090.717,-18096.916,-18092.992,-18085.875,-18087.53,-18092.846,-18089.72,-18090.914
-18098.734,-18096.373,-18088.402,-18086.47,-18090.135,-18091.76,-18088.67,-18085.744,-18090.803,-18098.076,-18095.898,-18096.07,-18100.898,-18099.145,-18098.314,-18103.6,-18104.89,-18099.492,-18095.295,-18090.82,-18086.59,-18087.871,-18088.92,-18091.625,-18097.334
-18099.248,-18098.81,-18098.383,-18101.994,-18103.07,-18098.36,-18094.965,-18090.957,-18092.564,-18091.07,-18083.252,-18084.875,-18090.197,-18097.16,-18097.701,-18089.66,-18088.213,-18087.86,-18090.682,-18096.123,-18097.479,-18102.004,-18101.6,-18099.373,-18103.387
-18103.39,-18099.533,-18099.613,-18107.223,-18108.438,-18104.617,-18109.123,-18108.033,-18103.97,-18106.227,-18109.496,-18106.992,-18096.105,-18090.451,-18090.074,-18092.754,-18095.773,-18089.377,-18087.707,-18090.436,-18089.533,-18092.824,-18096.85,-18096.695,-18092.396
