0.0,2805.1543,4421.4746,-9458.17,-21842.143,-14087.233,-14144.19,-17797.11,-12513.144,-16018.673,-15312.002,-14281.613,-17592.076,-15437.996,-18206.82,-17870.785,-17375.988,-18802.512,-16807.344,-18148.975,-16960.33,-16886.484,-17031.424,-15798.364,-16632.01
-15285.929,-15382.716,-14989.008,-14808.469,-15586.159,-14970.605,-15700.237,-15729.513,-16222.036,-16803.574,-16790.299,-17380.385,-17215.873,-17493.18,-17491.484,-17363.889,-17437.926,-17171.172,-17278.754,-16911.818,-16487.217,-16063.304,-15450.173,-15196.02,-15199.499
-15547.313,-15843.987,-16055.061,-16189.416,-16354.095,-16705.504,-17054.812,-17529.451,-17795.406,-17880.564,-17761.555,-17159.059,-16524.729,-16070.381,-15781.505,-15578.449,-15332.693,-15166.564,-15188.258,-15341.764,-15694.755,-16157.558,-16333.223,-16421.166,-16586.543
-16716.84,-16944.953,-17104.992,-17157.54,-17212.5,-17228.17,-17167.52,-16935.295,-16653.885,-16444.348,-16301.778,-16092.182,-15744.075,-15572.622,-15590.081,-15694.575,-15932.195,-16141.677,-16369.488,-16757.225,-17243.082,-17488.908,-17301.602,-17070.516,-17139.084
-17349.432,-17147.799,-16590.61,-16310.414,-16287.005,-16227.609,-15960.403,-15607.945,-15469.409,-15471.724,-15631.391,-15975.309,-16371.524,-16773.373,-17066.84,-17249.975,-17357.117,-17310.826,-17096.914,-16768.916,-16439.695,-16180.475,-15997.954,-15933.6,-16004.869
-16187.888,-16417.8,-16446.803,-16205.04,-16021.308,-15969.109,-16042.42,-16324.421,-16588.78,-16651.99,-16482.04,-16338.354,-16389.613,-16424.492,-16514.57,-16597.334,-16596.281,-16596.164,-16516.38,-16472.11,-16360.892,-16173.191,-16148.519,-16136.641,-16131.319
-16188.589,-16236.048,-16372.725,-16612.7,-16894.635,-17009.879,-16768.719,-16553.78,-16759.27,-17087.234,-17109.53,-16930.107,-16802.484,-16601.398,-16290.381,-16170.501,-16326.656,-16596.902,-16613.14,-16280.915,-16127.41,-16129.908,-16057.655,-16091.164,-16127.956
-16156.71,-16206.535,-16241.691,-16278.6045,-16257.813,-16278.728,-16287.752,-16276.73,-16315.071,-16317.643,-16325.451,-16341.279,-16389.5,-16498.705,-16578.969,-16564.729,-16487.156,-16437.877,-16447.664,-16472.541,-16460.363,-16444.244,-16376.765,-16298.247,-16315.673
-16324.35,-16378.456,-16565.229,-16856.582,-17047.717,-17015.791,-17205.47,-17698.49,-17865.738,-17275.602,-16425.383,-16004.305,-15848.838,-15870.625,-16029.271,-16078.783,-16115.66,-16119.072,-16131.059,-16156.5625,-16143.521,-16359.75,-16886.506,-17402.688,-17342.268
-16777.457,-16250.197,-15913.326,-15876.259,-16005.227,-16173.891,-16371.391,-16439.518,-16485.3,-16489.807,-16461.197,-16579.535,-16832.707,-16999.531,-16655.912,-16141.903,-15954.278,-15890.503,-15988.363,-16152.818,-16339.736,-16590.229,-16543.906,-16423.793,-16424.248
-16354.568,-16348.233,-16406.514,-16441.943,-16477.523,-16572.53,-16682.56,-16753.957,-16825.416,-16679.107,-16369.743,-16186.141,-16179.514,-16297.462,-16255.4375,-16148.899,-16202.326,-16191.045,-16181.166,-16266.355,-16328.632,-16391.277,-16481.502,-16639.582,-16821.498
-16952.295,-16988.984,-16768.678,-16469.62,-16362.914,-16192.328,-15992.376,-15961.303,-15955.247,-16033.092,-16120.686,-16175.531,-16309.079,-16386.03,-16436.646,-16489.53,-16512.541,-16575.271,-16770.768,-17007.998,-16921.244,-16575.352,-16245.215,-16105.673,-16262.366
-16413.2,-16532.104,-16773.078,-16882.041,-16783.955,-16618.908,-16472.844,-16442.043,-16495.342,-16565.17,-16634.957,-16680.316,-16757.908,-16710.996,-16477.227,-16512.86,-16824.668,-16878.902,-16528.695,-16058.505,-15713.474,-15628.848,-15806.776,-15976.758,-16131.253
-16340.28,-16469.316,-16542.254,-16570.31,-16632.166,-16641.57,-16543.96,-16651.896,-16860.078,-16792.762,-16516.527,-16320.975,-16154.262,-16052.735,-16281.808,-16551.94,-16597.506,-16623.83,-16655.488,-16544.418,-16406.688,-16360.68,-16267.076,-16224.094,-16287.53
-16322.82,-16356.239,-16363.116,-16430.287,-16457.195,-16256.363,-16114.616,-16079.053,-16031.019,-16147.405,-16406.574,-16573.07,-16530.38,-16460.605,-16585.87,-16741.633,-16723.514,-16609.846,-16526.783,-16498.385,-16487.885,-16462.113,-16415.936,-16337.565,-16228.856
-16225.723,-16349.196,-16360.39,-16266.1455,-16323.878,-16522.455,-16552.422,-16362.653,-16309.537,-16359.486,-16315.568,-16371.004,-16481.504,-16645.518,-16909.771,-16876.02,-16526.223,-16329.2705,-16482.164,-16608.873,-16404.342,-16192.235,-16098.767,-16037.423,-16062.913
-16048.661,-16107.702,-16332.673,-16524.432,-16670.477,-16759.852,-16877.363,-16939.912,-16797.031,-16777.2,-16822.066,-16674.738,-16594.688,-16537.355,-16239.92,-16004.009,-15911.633,-15813.79,-15911.231,-16052.513,-16142.035,-16272.05,-16393.398,-16603.615,-16808.383
-16916.209,-16846.541,-16678.078,-16625.582,-16558.088,-16687.143,-17092.082,-17333.662,-17157.96,-16543.232,-16061.663,-16011.236,-16008.036,-16059.931,-16121.476,-16132.826,-16208.217,-16287.044,-16381.958,-16395.285,-16366.176,-16371.669,-16313.203,-16241.937,-16209.257
-16276.024,-16289.357,-16176.287,-16158.57,-16191.997,-16224.928,-16299.716,-16412.54,-16544.941,-16679.97,-16918.594,-17085.297,-16911.295,-16583.787,-16324.939,-16181.21,-16152.865,-16164.366,-16194.364,-16214.066,-16207.988,-16220.769,-16224.687,-16222.758,-16261.218
-16332.263,-16375.019,-16427.709,-16620.213,-16815.05,-16782.637,-16665.566,-16675.47,-16647.346,-16481.223,-16344.341,-16243.483,-16182.857,-16198.586,-16266.764,-16366.312,-16368.575,-16364.53,-16484.066,-16525.389,-16446.139,-16385.799,-16349.495,-16388.28,-16512.084
-16531.637,-16499.203,-16645.256,-16858.59,-16880.18,-16667.344,-16447.037,-16351.491,-16309.779,-16331.646,-16316.961,-16320.14,-16452.373,-16423.266,-16333.611,-16393.56,-16329.264,-16198.014,-16178.029,-16248.393,-16444.18,-16545.422,-16466.957,-16448.994,-16465.072
-16443.582,-16403.844,-16347.347,-16336.15,-16309.097,-16293.116,-16364.962,-16441.781,-16447.57,-16327.65,-16245.578,-16260.29,-16276.977,-16427.953,-16552.58,-16544.494,-16689.58,-16889.072,-16861.262,-16742.006,-16767.096,-16843.113,-16768.309,-16583.06,-16541.316
-16705.133,-16955.766,-17054.146,-16666.48,-16178.692,-16001.696,-15968.438,-16018.274,-15980.859,-15948.26,-16018.848,-16037.327,-16087.171,-16110.725,-16136.722,-16156.659,-16148.319,-16210.358,-16228.601,-16270.946,-16322.695,-16340.127,-16400.746,-16427.637,-16489.928
-16716.914,-17069.625,-17118.242,-16740.998,-16488.94,-16359.058,-16234.396,-16324.672,-16372.577,-16380.831,-16543.58,-16596.252,-16515.01,-16363.475,-16210.387,-16240.13,-16355.942,-16460.195,-16443.889,-16314.059,-16272.75,-16304.463,-16332.99,-16376.916,-16452.441
-16455.844,-16430.67,-16440.982,-16367.647,-16323.661,-16294.382,-16231.38,-16252.768,-16255.132,-16241.908,-16283.028,-16351.04,-16425.604,-16533.523,-16728.479,-16812.16,-16642.219,-16400.375,-16279.124,-16341.065,-16589.613,-16826.451,-16782.523,-16699.309,-16678.88
-16462.66,-16325.324,-16403.604,-16437.992,-16387.889,-16260.458,-16172.06,-16143.957,-16071.818,-16086.751,-16247.341,-16571.018,-16979.898,-17094.332,-16822.83,-16443.46,-16139.941,-16006.876,-16086.651,-16226.446,-16251.649,-16220.321,-16267.127,-16340.967,-16330.9795
-16334.932,-16407.242,-16451.627,-16479.088,-16531.479,-16571.23,-16519.648,-16411.344,-16377.14,-16420.662,-16513.236,-16673.875,-16775.309,-16730.29,-16604.44,-16355.57,-16090.497,-16021.608,-16110.707,-16217.532,-16269.936,-16302.268,-16308.725,-16300.197,-16336.044
-16438.852,-16532.168,-16431.766,-16228.3,-16076.938,-16016.054,-16049.899,-16067.044,-16151.017,-16318.308,-16495.375,-16690.092,-16736.367,-16647.432,-16578.623,-16575.973,-16658.762,-16761.953,-16765.6,-16657.053,-16579.652,-16531.252,-16445.52,-16329.722,-16149.99
-15990.022,-15965.783,-16084.479,-16278.259,-16491.604,-16621.482,-16588.883,-16496.328,-16351.688,-16233.655,-16252.865,-16301.849,-16373.201,-16352.454,-16193.6045,-16135.922,-16142.795,-16175.844,-16335.085,-16653.021,-17124.55,-17301.793,-16907.994,-16494.434,-16460.586
-16588.098,-16608.219,-16470.96,-16290.356,-16195.086,-16169.552,-16128.683,-16131.72,-16208.135,-16223.235,-16193.449,-16167.683,-16186.934,-16350.046,-16433.064,-16292.271,-16172.552,-16169.842,-16198.476,-16249.1875,-16354.327,-16476.373,-16502.707,-16438.566,-16439.121
-16516.943,-16555.812,-16522.104,-16504.045,-16599.99,-16671.809,-16548.133,-16363.443,-16323.344,-16491.457,-16724.367,-16743.465,-16752.3,-16832.168,-16507.219,-16130.361,-16016.548,-15944.654,-16088.227,-16235.073,-16362.059,-16502.404,-16417.424,-16362.302,-16313.677
-16289.786,-16340.839,-16345.191,-16426.273,-16493.854,-16430.797,-16193.03,-16065.51,-16197.033,-16295.473,-16399.258,-16442.38,-16409.695,-16422.758,-16442.295,-16489.654,-16474.691,-16492.643,-16657.826,-16878.844,-17025.213,-16880.102,-16476.076,-16047.574,-15838.602
-15867.737,-15932.501,-16037.978,-16207.05,-16409.377,-16648.613,-16851.508,-16879.584,-16697.857,-16543.855,-16526.018,-16455.682,-16263.336,-16112.533,-16083.513,-16083.046,-16134.094,-16193.977,-16154.45,-16119.388,-16110.283,-16108.395,-16189.656,-16292.784,-16367.26
-16508.03,-16642.69,-16580.502,-16474.262,-16582.297,-16836.426,-16978.383,-16836.514,-16625.4,-16608.512,-16594.426,-16452.701,-16370.416,-16343.754,-16275.465,-16287.369,-16373.179,-16337.927,-16233.091,-16248.185,-16295.15,-16263.825,-16299.697,-16409.748,-16482.66
-16451.02,-16337.442,-16288.528,-16222.224,-16154.248,-16209.866,-16329.884,-16497.61,-16547.451,-16502.531,-16607.525,-16849.756,-17016.602,-16819.053,-16427.57,-16212.547,-16172.242,-16281.926,-16362.981,-16289.35,-16277.639,-16269.291,-16207.015,-16190.407,-16131.671
-16107.362,-16124.23,-16131.053,-16198.968,-16257.144,-16323.724,-16368.868,-16361.49,-16436.727,-16591.598,-16769.113,-16887.816,-16872.975,-16893.033,-17017.045,-16925.986,-16722.656,-16733.139,-16595.723,-16298.905,-16200.547,-16136.985,-16136.823,-16247.516,-16267.762
-16211.073,-16160.396,-16177.8125,-16156.814,-16127.135,-16231.533,-16318.814,-16333.618,-16266.6,-16240.329,-16292.691,-16247.43,-16300.254,-16444.594,-16520.715,-16495.246,-16359.112,-16345.306,-16429.436,-16581.275,-16807.695,-16879.111,-16766.86,-16572.795,-16444.299
-16363.351,-16236.276,-16205.766,-16327.685,-16408.756,-16380.701,-16381.95,-16367.312,-16348.987,-16426.184,-16588.592,-16680.504,-16495.398,-16361.871,-16388.334,-16334.673,-16349.54,-16469.117,-16736.857,-16925.082,-16815.92,-16708.88,-16459.697,-16184.067,-16122.336
-16018.787,-16050.333,-16135.395,-16141.622,-16255.008,-16322.114,-16398.273,-16443.926,-16372.014,-16357.009,-16373.655,-16408.217,-16447.754,-16419.984,-16243.329,-16130.323,-16248.321,-16270.166,-16237.185,-16305.597,-16369.4375,-16407.383,-16401.416,-16419.996,-16508.654
-16691.852,-16950.498,-17122.594,-17006.123,-16604.125,-16284.217,-16217.421,-16274.11,-16337.728,-16287.388,-16171.734,-16116.202,-16152.031,-16281.385,-16447.555,-16569.098,-16591.723,-16555.691,-16549.395,-16644.895,-16817.21,-16775.969,-16538.701,-16378.589,-16185.584
-16018.899,-15998.801,-16024.211,-16097.333,-16156.56,-16223.422,-16354.343,-16510.906,-16597.197,-16522.26,-16436.951,-16365.63,-16285.92,-16276.754,-16252.083,-16248.912,-16314.886,-16427.424,-16524.998,-16460.787,-16378.795,-16376.701,-16417.346,-16535.916,-16551.74
-16494.143,-16468.602,-16374.928,-16342.756,-16409.486,-16509.645,-16627.088,-16635.45,-16597.295,-16598.049,-16516.418,-16340.002,-16216.667,-16209.946,-16249.699,-16256.574,-16231.703,-16220.492,-16237.421,-16271.164,-16282.919,-16314.06,-16401.389,-16449.846,-16413.23
-16339.585,-16332.631,-16439.59,-16606.975,-16742.693,-16783.201,-16802.287,-16789.895,-16608.178,-16366.024,-16241.905,-16151.689,-16142.674,-16308.1,-16487.303,-16620.316,-16687.041,-16679.303,-16647.188,-16589.54,-16462.48,-16258.401,-16212.329,-16277.646,-16218.156
-16234.814,-16365.544,-16377.458,-16331.514,-16356.036,-16338.155,-16303.927,-16383.321,-16505.967,-16556.646,-16464.738,-16416.135,-16508.623,-16607.51,-16663.516,-16636.377,-16702.834,-16738.992,-16583.492,-16581.184,-16691.951,-16681.295,-16469.154,-16285.441,-16231.657
-16052.102,-16070.218,-16233.618,-16245.962,-16285.517,-16272.387,-16252.926,-16250.544,-16258.88,-16320.762,-16290.125,-16242.096,-16212.588,-16215.626,-16267.055,-16295.13,-16343.016,-16403.656,-16444.912,-16453.043,-16483.81,-16529.479,-16522.742,-16519.986,-16511.156
-16527.922,-16576.852,-16520.627,-16377.156,-16279.867,-16228.356,-16184.217,-16183.318,-16201.036,-16317.431,-16559.586,-16693.238,-16688.475,-16643.25,-16610.975,-16638.047,-16636.799,-16650.496,-16740.14,-16701.982,-16488.736,-16320.119,-16305.951,-16453.627,-16636.209
-16554.53,-16323.351,-16317.826,-16402.564,-16418.088,-16522.605,-16607.785,-16454.814,-16226.063,-16160.178,-16181.989,-16246.058,-16417.223,-16620.375,-16748.016,-16675.729,-16466.787,-16304.981,-16191.995,-16146.507,-16133.157,-16182.064,-16549.852,-17170.506,-17705.248
-17818.857,-17270.91,-16506.367,-16049.214,-15848.667,-15918.691,-16093.679,-16183.261,-16263.738,-16250.783,-16247.011,-16271.603,-16230.509,-16196.645,-16121.391,-16090.139,-16097.526,-16081.668,-16102.413,-16143.354,-16267.228,-16365.423,-16389.389,-16453.338,-16502.215
-16623.521,-16921.508,-17228.416,-17236.268,-16854.562,-16434.354,-16284.926,-16316.688,-16328.5625,-16247.835,-16106.992,-16006.699,-15995.713,-16010.828,-16032.323,-16086.839,-16150.973,-16209.604,-16280.773,-16354.478,-16417.156,-16471.79,-16506.559,-16529.14,-16546.057
-16557.027,-16588.166,-16598.396,-16542.518,-16503.986,-16499.955,-16454.088,-16401.97,-16353.767,-16344.455,-16458.85,-16567.19,-16695.658,-16890.23,-16839.414,-16591.008,-16436.734,-16380.701,-16441.781,-16608.303,-16645.617,-16458.414,-16333.538,-16284.409,-16173.269
-16173.498,-16185.542,-16174.133,-16192.281,-16160.638,-16207.986,-16241.858,-16275.948,-16352.957,-16338.929,-16370.291,-16370.638,-16367.168,-16513.021,-16649.984,-16686.418,-16589.604,-16515.514,-16512.115,-16504.412,-16596.541,-16649.736,-16644.664,-16638.82,-16579.95
-16663.541,-16819.686,-16821.777,-16700.846,-16518.307,-16361.399,-16216.931,-16099.577,-16132.618,-16224.515,-16286.313,-16304.833,-16276.457,-16268.243,-16256.798,-16250.328,-16268.102,-16346.0205,-16451.92,-16372.434,-16193.054,-16129.749,-16188.14,-16335.996,-16506.186
-16601.908,-16569.734,-16543.05,-16647.3,-16683.482,-16555.203,-16456.953,-16410.365,-16381.296,-16376.031,-16317.798,-16279.5205,-16311.623,-16331.268,-16288.137,-16222.966,-16220.22,-16239.916,-16284.647,-16385.818,-16474.33,-16565.45,-16758.53,-16985.164,-16929.113
-16575.182,-16329.948,-16279.86,-16241.747,-16280.093,-16366.904,-16345.383,-16302.61,-16279.446,-16268.411,-16268.431,-16206.034,-16166.97,-16183.372,-16205.59,-16279.298,-16353.748,-16357.608,-16353.15,-16357.775,-16359.798,-16411.076,-16493.193,-16589.67,-16609.51
-16496.512,-16422.191,-16415.15,-16444.42,-16489.805,-16431.188,-16329.929,-16291.157,-16291.086,-16341.421,-16461.764,-16556.584,-16554.38,-16499.32,-16451.273,-16511.82,-16718.525,-16956.291,-16963.174,-16661.486,-16449.209,-16481.293,-16538.375,-16525.693,-16389.996
-16223.007,-16181.119,-16205.887,-16155.37,-16100.598,-16139.642,-16159.582,-16174.617,-16207.356,-16248.089,-16340.17,-16377.869,-16384.305,-16407.426,-16395.379,-16420.264,-16472.047,-16456.361,-16439.008,-16553.432,-16836.016,-17208.535,-17424.666,-17439.477,-17409.148
-17027.6,-16321.213,-15924.778,-15804.409,-15793.372,-15970.516,-16127.598,-16270.983,-16347.708,-16326.63,-16343.153,-16258.744,-16192.0,-16155.698,-16092.165,-16124.893,-16102.016,-16100.854,-16141.844,-16150.463,-16212.332,-16246.157,-16301.336,-16361.31,-16394.113
-16461.05,-16470.965,-16460.89,-16463.385,-16448.58,-16481.72,-16582.385,-16753.695,-16989.219,-17086.32,-16849.229,-16500.932,-16270.463,-16141.883,-16135.3125,-16147.321,-16179.073,-16308.184,-16399.8,-16498.055,-16535.71,-16393.178,-16303.522,-16274.429,-16242.532
-16268.779,-16260.17,-16230.126,-16211.876,-16173.468,-16154.269,-16152.969,-16167.376,-16207.511,-16247.528,-16289.3,-16338.279,-16383.49,-16438.254,-16516.412,-16633.637,-16793.777,-16920.99,-16913.797,-16826.725,-16816.89,-16775.643,-16543.008,-16313.299,-16212.84
-16119.138,-16055.865,-16105.917,-16169.512,-16216.491,-16254.756,-16254.631,-16336.683,-16443.148,-16452.514,-16415.541,-16333.45,-16288.869,-16325.589,-16350.296,-16328.101,-16307.457,-16353.6045,-16430.791,-16437.406,-16382.687,-16440.42,-16560.492,-16526.938,-16440.816
-16365.584,-16312.718,-16355.772,-16351.992,-16340.076,-16377.569,-16389.14,-16462.475,-16535.19,-16612.574,-16718.63,-16607.13,-16373.864,-16302.819,-16332.942,-16438.361,-16509.385,-16341.514,-16237.231,-16259.45,-16212.362,-16264.54,-16326.399,-16385.412,-16516.25
-16542.668,-16501.37,-16463.678,-16443.977,-16392.379,-16329.483,-16320.339,-16271.014,-16304.964,-16502.44,-16663.15,-16655.535,-16561.871,-16502.986,-16510.06,-16549.072,-16453.574,-16344.108,-16321.522,-16210.348,-16248.151,-16528.459,-16768.389,-16737.746,-16378.826
-16050.538,-15954.03,-15967.862,-16051.903,-16140.164,-16198.356,-16287.994,-16399.273,-16497.797,-16605.271,-16637.037,-16562.387,-16492.027,-16466.76,-16493.818,-16497.795,-16438.48,-16406.9,-16357.29,-16254.671,-16202.833,-16211.234,-16281.528,-16345.637,-16321.506
-16331.167,-16353.027,-16340.084,-16349.436,-16372.998,-16474.016,-16512.48,-16376.16,-16273.39,-16232.92,-16222.793,-16274.42,-16310.847,-16331.317,-16314.133,-16254.921,-16283.665,-16350.186,-16380.569,-16440.469,-16466.8,-16431.33,-16398.717,-16374.646,-16389.443
-16413.113,-16418.754,-16466.38,-16584.232,-16774.166,-16874.654,-16744.357,-16516.826,-16386.338,-16519.316,-16729.637,-16708.094,-16616.69,-16499.984,-16323.465,-16254.078,-16216.762,-16187.862,-16183.676,-16185.702,-16219.544,-16211.62,-16247.904,-16284.615,-16244.324
-16232.394,-16228.677,-16247.398,-16250.121,-16246.933,-16282.631,-16330.195,-16454.807,-16524.31,-16474.818,-16433.396,-16404.482,-16465.492,-16683.555,-16922.574,-17031.852,-17011.738,-16818.19,-16443.348,-16132.313,-15974.026,-15939.359,-16002.554,-16043.291,-16101.729
-16175.357,-16289.72,-16497.19,-16597.467,-16548.328,-16445.543,-16388.188,-16428.215,-16415.93,-16370.124,-16433.441,-16519.414,-16548.957,-16544.723,-16411.162,-16273.757,-16360.704,-16496.174,-16577.936,-16592.871,-16437.996,-16291.007,-16259.5625,-16275.169,-16347.947
-16399.438,-16413.408,-16430.918,-16400.082,-16347.545,-16310.887,-16289.804,-16260.513,-16227.022,-16271.964,-16376.924,-16563.727,-16810.092,-16846.516,-16649.11,-16500.979,-16591.14,-16861.201,-16972.393,-16790.863,-16549.086,-16338.049,-16190.752,-16183.988,-16261.539
-16303.633,-16309.761,-16366.638,-16320.106,-16175.963,-16138.265,-16090.866,-16054.282,-16099.509,-16137.456,-16198.779,-16244.979,-16308.919,-16409.998,-16426.564,-16416.39,-16429.795,-16436.54,-16454.064,-16466.6,-16467.416,-16465.098,-16435.842,-16386.158,-16369.943
-16415.447,-16548.174,-16736.809,-16897.316,-16996.926,-17030.62,-17004.807,-16785.207,-16391.834,-16196.52,-16201.661,-16172.594,-16179.541,-16207.559,-16226.199,-16364.945,-16505.254,-16525.447,-16485.479,-16349.008,-16198.759,-16152.403,-16123.337,-16115.309,-16160.017
-16176.906,-16215.62,-16299.749,-16369.908,-16471.777,-16633.746,-16793.486,-16779.488,-16613.611,-16492.768,-16424.969,-16403.361,-16386.188,-16340.211,-16301.538,-16262.532,-16256.357,-16261.323,-16254.953,-16251.348,-16260.265,-16311.796,-16423.12,-16603.734,-16701.904
-16667.363,-16661.166,-16640.527,-16608.832,-16656.984,-16627.338,-16449.346,-16301.601,-16272.347,-16291.47,-16343.449,-16398.723,-16358.51,-16285.788,-16253.489,-16218.8,-16194.002,-16183.96,-16202.922,-16275.152,-16344.761,-16396.303,-16469.865,-16537.389,-16505.588
-16426.342,-16430.236,-16446.396,-16434.021,-16447.557,-16439.45,-16389.355,-16347.026,-16359.208,-16397.879,-16406.314,-16424.312,-16468.63,-16488.713,-16483.572,-16440.926,-16402.668,-16466.965,-16592.482,-16685.857,-16627.01,-16492.459,-16495.486,-16559.986,-16587.713
-16486.303,-16320.603,-16293.167,-16282.834,-16258.213,-16271.438,-16287.209,-16293.883,-16254.906,-16233.836,-16214.516,-16201.873,-16233.13,-16258.304,-16312.525,-16386.396,-16465.994,-16504.26,-16469.535,-16456.055,-16464.703,-16544.674,-16716.328,-16821.58,-16785.467
-16643.05,-16503.611,-16403.984,-16334.442,-16337.418,-16314.656,-16296.689,-16401.865,-16478.613,-16435.826,-16346.178,-16302.101,-16392.848,-16480.541,-16461.37,-16441.336,-16337.805,-16182.249,-16130.455,-16107.263,-16126.296,-16192.303,-16284.692,-16393.963,-16424.76
-16469.395,-16521.613,-16454.477,-16340.804,-16231.134,-16160.032,-16182.587,-16233.26,-16276.456,-16330.796,-16375.652,-16444.37,-16465.977,-16368.628,-16299.157,-16277.274,-16271.2,-16297.485,-16281.683,-16276.791,-16307.817,-16324.084,-16377.794,-16409.65,-16355.355
-16300.585,-16285.707,-16317.631,-16395.764,-16439.096,-16414.697,-16382.94,-16372.179,-16374.83,-16369.783,-16370.503,-16411.807,-16423.201,-16363.889,-16322.879,-16332.692,-16364.884,-16415.674,-16437.312,-16375.889,-16282.295,-16270.876,-16401.951,-16566.176,-16546.725
-16441.469,-16485.104,-16453.494,-16315.655,-16368.025,-16508.732,-16587.105,-16514.035,-16361.334,-16375.19,-16507.287,-16598.291,-16476.334,-16287.212,-16263.912,-16233.397,-16192.812,-16171.855,-16128.45,-16138.656,-16171.88,-16199.42,-16218.054,-16248.349,-16280.381
-16304.058,-16354.594,-16421.318,-16530.082,-16604.318,-16570.137,-16517.887,-16474.96,-16403.684,-16368.269,-16441.18,-16516.623,-16595.195,-16735.469,-16750.023,-16616.05,-16459.863,-16270.729,-16117.869,-16070.247,-16061.57,-16100.631,-16249.632,-16419.346,-16518.371
-16619.201,-16722.18,-16678.842,-16482.98,-16276.829,-16165.927,-16126.145,-16073.021,-16115.481,-16250.087,-16333.631,-16400.605,-16412.24,-16430.443,-16487.033,-16432.701,-16347.144,-16323.364,-16319.361,-16267.625,-16222.486,-16208.3545,-16172.934,-16284.7295,-16484.209
-16556.465,-16633.09,-16845.734,-16909.807,-16679.953,-16495.395,-16363.61,-16261.393,-16286.487,-16256.923,-16243.469,-16247.778,-16205.983,-16207.749,-16195.863,-16192.096,-16191.353,-16179.462,-16180.462,-16179.479,-16203.53,-16239.849,-16303.935,-16369.406,-16394.17
-16413.463,-16438.275,-16471.885,-16515.016,-16579.389,-16654.338,-16675.371,-16686.93,-16827.621,-16959.79,-16853.947,-16633.902,-16440.709,-16282.023,-16158.384,-16024.271,-16009.726,-16214.955,-16410.254,-16469.492,-16440.744,-16367.339,-16394.896,-16397.703,-16269.427
-16226.656,-16208.263,-16222.463,-16265.806,-16170.53,-16116.351,-16129.116,-16148.44,-16218.861,-16276.727,-16367.327,-16485.355,-16548.68,-16509.832,-16401.082,-16325.411,-16346.995,-16395.08,-16336.235,-16276.498,-16287.856,-16342.853,-16508.076,-16699.193,-16725.174
-16506.137,-16258.09,-16202.224,-16229.203,-16268.81,-16382.754,-16545.148,-16763.28,-16950.28,-16738.559,-16317.613,-16225.769,-16199.544,-16051.702,-15976.786,-15941.502,-15998.02,-16081.172,-16092.709,-16066.365,-16066.978,-16162.401,-16189.74,-16133.569,-16083.397
-16041.999,-16072.031,-16121.1875,-16178.206,-16246.85,-16286.963,-16359.119,-16518.95,-16721.668,-16753.494,-16563.56,-16399.047,-16360.427,-16415.605,-16448.574,-16369.087,-16322.547,-16298.958,-16310.011,-16475.78,-16677.365,-16784.4,-16640.096,-16297.21,-16030.356
-15929.565,-15954.056,-15991.789,-16044.229,-16109.866,-16181.232,-16276.255,-16284.91,-16267.083,-16257.603,-16169.859,-16112.956,-16197.569,-16335.956,-16432.742,-16505.81,-16558.164,-16563.096,-16536.754,-16498.9,-16397.238,-16264.484,-16192.565,-16171.597,-16188.108
-16258.147,-16400.285,-16454.502,-16366.574,-16331.421,-16310.842,-16306.985,-16408.006,-16423.943,-16259.668,-16092.692,-16044.356,-16119.093,-16271.131,-16394.562,-16432.098,-16350.677,-16264.176,-16404.307,-16779.13,-17271.97,-17482.355,-17116.648,-16635.312,-16289.577
-15994.629,-15909.915,-15926.45,-15883.097,-15867.313,-15914.642,-16017.028,-16101.428,-16129.3125,-16169.037,-16229.422,-16287.8,-16367.726,-16458.879,-16531.584,-16524.979,-16400.414,-16321.256,-16358.698,-16365.483,-16276.628,-16157.553,-16117.617,-16153.178,-16191.663
-16235.579,-16282.533,-16297.849,-16287.225,-16286.795,-16304.071,-16339.842,-16377.365,-16447.23,-16594.832,-16678.281,-16551.723,-16321.222,-16199.995,-16250.836,-16395.52,-16575.408,-16791.848,-16911.771,-16743.479,-16622.69,-16876.643,-17161.74,-17258.582,-17116.363
-16685.146,-16276.55,-16031.966,-15855.851,-15804.857,-15898.914,-16111.014,-16342.0205,-16445.908,-16409.04,-16264.204,-16122.384,-16054.429,-16021.219,-16121.584,-16408.07,-16792.83,-17049.785,-17023.008,-16951.566,-16784.297,-16451.023,-16354.588,-16406.705,-16411.363
-16381.156,-16226.523,-16184.088,-16182.964,-16119.3,-16192.339,-16162.5625,-16081.297,-16075.444,-16026.804,-16043.42,-16034.353,-16015.185,-16030.953,-16024.021,-16096.514,-16218.794,-16366.528,-16508.932,-16642.18,-16749.775,-16880.746,-17089.541,-17010.447,-16716.451
-16495.123,-16279.175,-16300.675,-16494.904,-16625.293,-16629.44,-16408.29,-16254.77,-16113.27,-15902.15,-15925.132,-15977.908,-16004.294,-16056.633,-16075.044,-16150.485,-16208.295,-16284.568,-16314.572,-16291.872,-16322.302,-16299.335,-16290.662,-16339.722,-16502.582
-16668.174,-16586.068,-16457.764,-16356.968,-16231.969,-16217.164,-16309.967,-16475.709,-16565.58,-16457.527,-16359.377,-16347.907,-16362.854,-16460.64,-16553.623,-16706.643,-17066.111,-17269.783,-17031.586,-16658.453,-16385.621,-16194.69,-16151.489,-16172.562,-16317.333
-16581.271,-16498.441,-16288.112,-16262.804,-16168.573,-16127.725,-16124.854,-16124.03,-16205.264,-16176.42,-16210.377,-16285.189,-16208.152,-16207.695,-16261.983,-16277.743,-16257.578,-16204.541,-16223.041,-16294.086,-16544.822,-17043.795,-17564.701,-17881.584,-17663.666
-17000.436,-16422.533,-16130.057,-16091.983,-16039.751,-15889.301,-15894.908,-15963.881,-16024.683,-16061.041,-16029.95,-16037.072,-16037.543,-16028.087,-16018.378,-16016.849,-16066.662,-16145.648,-16263.416,-16303.75,-16266.023,-16275.133,-16321.609,-16434.615,-16535.162
-16509.975,-16469.203,-16459.58,-16472.58,-16634.025,-16956.668,-17205.03,-17071.002,-16668.824,-16387.611,-16204.324,-16059.644,-16005.7295,-15978.301,-15990.392,-16020.872,-16132.124,-16359.82,-16662.21,-16925.082,-16864.943,-16868.434,-17115.605,-16917.902,-16630.182
-16900.137,-17073.346,-16739.875,-16330.848,-15964.142,-15703.743,-15709.883,-15766.801,-15864.768,-16030.21,-16101.959,-16160.856,-16189.915,-16172.902,-16174.828,-16165.856,-16150.626,-16117.067,-16112.055,-16139.884,-16159.943,-16196.58,-16240.6045,-16317.797,-16438.5
-16474.623,-16399.65,-16379.326,-16360.601,-16331.163,-16430.234,-16509.004,-16505.314,-16471.404,-16484.84,-16634.963,-16708.543,-16580.227,-16369.485,-16188.635,-16087.976,-16101.742,-16213.606,-16312.293,-16368.782,-16387.855,-16415.932,-16479.223,-16497.36,-16541.576
-16753.977,-17024.562,-17161.926,-17114.623,-16802.93,-16386.895,-16120.298,-16081.421,-16296.192,-16371.314,-16242.92,-16230.476,-16297.351,-16667.568,-17261.959,-17428.217,-17069.922,-16612.572,-16302.797,-16151.869,-16129.377,-16069.578,-16005.175,-16074.307,-16087.37
-16036.312,-16049.247,-16037.54,-16034.081,-16089.725,-16096.155,-16091.361,-16133.784,-16157.944,-16183.377,-16263.23,-16380.41,-16389.496,-16269.656,-16246.448,-16326.283,-16417.064,-16577.447,-16781.826,-16934.375,-16931.707,-16788.87,-16652.693,-16507.457,-16324.096
-16205.352,-16137.001,-16084.512,-16107.078,-16165.108,-16163.9375,-16155.354,-16202.127,-16238.968,-16260.033,-16280.21,-16343.402,-16495.807,-16500.414,-16331.944,-16292.27,-16351.431,-16382.431,-16368.485,-16299.798,-16283.755,-16410.502,-16790.523,-17367.549,-17749.648
-17644.594,-17042.352,-16337.429,-16017.719,-16007.649,-16064.932,-16173.208,-16354.993,-16517.541,-16399.81,-16128.315,-16029.345,-16021.437,-16130.898,-16356.922,-16470.434,-16411.912,-16195.699,-16003.699,-15974.5625,-15996.5205,-16030.768,-16082.652,-16134.723,-16188.1
-16243.008,-16307.771,-16392.197,-16471.98,-16550.988,-16623.508,-16628.52,-16650.756,-16672.516,-16558.773,-16460.045,-16479.629,-16503.266,-16434.83,-16280.137,-16142.408,-16070.628,-16105.165,-16202.916,-16295.265,-16488.32,-16833.396,-17264.873,-17337.219,-16796.576
-16350.252,-16253.263,-16196.82,-16206.639,-16177.164,-16186.354,-16256.411,-16266.108,-16339.237,-16341.19,-16332.242,-16367.407,-16288.144,-16335.459,-16542.602,-16620.67,-16438.139,-16140.637,-15986.775,-16073.722,-16376.723,-16621.33,-16596.232,-16523.002,-16550.607
-16559.9,-16519.635,-16441.521,-16248.403,-16070.087,-16087.808,-16147.888,-16154.264,-16183.613,-16218.683,-16281.18,-16359.588,-16404.006,-16422.125,-16404.045,-16409.926,-16476.08,-16502.514,-16376.918,-16278.768,-16598.357,-17154.273,-17234.705,-16798.217,-16510.547
-16415.256,-16263.086,-16216.572,-16178.809,-16208.887,-16654.102,-17173.336,-17132.793,-16665.41,-16238.316,-15903.33,-15788.339,-15848.1,-15872.36,-15984.163,-16066.349,-16100.315,-16178.734,-16239.462,-16374.085,-16558.29,-16717.947,-16679.879,-16469.377,-16283.643
-16116.24,-16134.19,-16228.851,-16249.383,-16456.453,-16920.086,-17315.451,-17278.752,-17094.99,-17043.018,-16940.068,-16696.469,-16237.794,-15954.739,-16013.8,-16032.615,-16101.481,-16120.525,-16064.054,-16118.447,-16087.451,-16063.975,-16077.812,-16107.878,-16166.685
-16072.621,-16011.288,-16093.911,-16245.407,-16407.795,-16448.527,-16407.615,-16427.156,-16554.717,-16710.348,-16936.174,-17132.68,-17075.996,-16849.723,-16512.072,-16170.084,-15967.234,-15891.987,-15921.686,-15960.544,-15986.737,-16007.474,-16004.756,-16034.974,-16094.839
-16159.107,-16219.517,-16282.181,-16385.25,-16513.557,-16566.217,-16574.492,-16730.238,-16871.793,-16729.697,-16511.205,-16426.094,-16464.566,-16478.676,-16331.423,-16257.314,-16318.42,-16432.973,-16688.494,-16874.318,-16767.314,-16433.639,-16156.367,-16063.787,-16082.208
-16252.948,-16351.9,-16434.797,-16796.568,-17040.105,-16908.982,-16697.545,-16515.533,-16288.163,-16073.35,-15948.559,-15924.398,-15986.398,-16076.623,-16141.283,-16149.996,-16164.697,-16258.218,-16432.2,-16579.328,-16535.438,-16433.309,-16425.984,-16410.527,-16407.146
-16351.869,-16171.18,-16135.958,-16224.644,-16299.943,-16435.316,-16557.04,-16716.123,-16775.027,-16609.186,-16447.248,-16251.479,-16092.38,-16092.665,-16159.327,-16257.813,-16291.616,-16329.759,-16512.729,-16760.988,-16869.598,-16860.795,-17095.451,-17305.768,-16877.3
-16245.164,-15950.738,-15845.554,-15952.253,-16162.883,-16212.567,-16213.524,-16280.328,-16337.915,-16326.662,-16433.174,-16838.285,-17382.068,-17587.4,-17172.77,-16533.482,-16057.802,-15883.203,-15953.847,-15991.948,-16018.968,-16100.396,-16195.961,-16258.068,-16226.872
-16209.556,-16213.586,-16238.057,-16319.416,-16368.489,-16303.366,-16130.647,-16029.001,-16050.912,-16082.228,-16119.477,-16188.592,-16261.829,-16283.687,-16290.416,-16326.896,-16370.928,-16411.758,-16439.549,-16456.775,-16459.852,-16490.05,-16557.096,-16547.393,-16450.162
-16441.348,-16495.56,-16404.502,-16230.028,-16059.499,-15958.021,-16016.528,-16093.713,-16186.899,-16317.895,-16360.631,-16382.299,-16438.104,-16513.21,-16589.828,-16563.42,-16435.092,-16337.328,-16302.612,-16305.879,-16413.879,-16599.248,-16753.094,-16826.326,-16684.268
-16363.697,-16256.169,-16530.555,-16878.762,-16989.555,-16859.688,-16561.045,-16205.617,-16089.014,-16151.555,-16126.323,-16159.335,-16264.136,-16411.521,-16625.49,-16568.078,-16236.745,-15926.943,-15738.579,-15714.511,-15836.812,-16016.452,-16145.107,-16264.177,-16378.925
-16455.463,-16531.97,-16569.42,-16635.836,-16789.742,-16918.414,-16813.572,-16540.262,-16408.098,-16294.846,-16106.364,-15980.33,-15888.688,-15988.639,-16314.325,-16683.672,-16993.162,-16996.072,-16780.627,-16702.074,-16749.895,-16899.785,-17249.629,-17625.453,-17641.361
-17236.9,-16658.443,-16095.517,-15724.674,-15563.521,-15598.525,-15871.113,-16187.439,-16321.167,-16306.65,-16481.49,-16808.637,-16840.566,-16672.012,-16464.418,-16110.998,-15828.777,-15801.513,-15894.781,-16027.182,-16111.671,-16128.198,-16197.227,-16239.755,-16255.335
-16281.03,-16272.153,-16309.237,-16319.752,-16302.61,-16317.747,-16302.576,-16314.405,-16348.684,-16320.627,-16263.58,-16300.263,-16432.959,-16523.107,-16481.53,-16366.065,-16399.328,-16624.44,-16834.438,-16950.12,-16933.307,-16683.475,-16350.49,-16244.29,-16325.359
-16383.193,-16497.523,-16606.223,-16458.486,-16242.079,-16152.302,-16108.603,-16136.8,-16193.853,-16262.334,-16445.232,-16667.637,-16764.96,-16816.125,-16929.104,-16816.666,-16465.693,-16194.487,-15980.792,-15879.11,-15940.471,-16008.438,-16107.647,-16244.989,-16355.168
-16528.299,-16631.63,-16433.613,-16246.674,-16231.895,-16295.4795,-16529.104,-16616.162,-16467.879,-16422.924,-16464.217,-16521.674,-16553.799,-16407.213,-16121.5625,-15958.901,-15955.618,-16036.317,-16157.721,-16198.4795,-16225.949,-16275.181,-16403.988,-16609.184,-16705.125
-16752.885,-16755.314,-16747.006,-16800.654,-16811.58,-16771.207,-16699.893,-16708.982,-16678.13,-16440.895,-16188.269,-16017.186,-16085.904,-16333.101,-16325.988,-16104.603,-16053.382,-16194.539,-16361.626,-16469.309,-16402.021,-16304.381,-16221.676,-16055.952,-16013.041
-16039.997,-16070.121,-16108.068,-16065.466,-16113.135,-16212.726,-16265.162,-16342.179,-16392.967,-16407.514,-16391.012,-16317.879,-16221.053,-16148.709,-16102.312,-16079.928,-16086.831,-16098.89,-16128.784,-16207.879,-16294.991,-16343.05,-16514.355,-16884.89,-17119.445
-17167.059,-17221.943,-16905.785,-16308.564,-16064.524,-15949.451,-15896.767,-16015.724,-16010.375,-16077.178,-16178.988,-16140.742,-16068.918,-15985.495,-16029.435,-16069.204,-16086.612,-16212.924,-16339.368,-16404.344,-16333.861,-16212.333,-16147.995,-16157.456,-16205.001
-16241.298,-16282.765,-16281.973,-16297.642,-16292.1455,-16247.97,-16276.029,-16354.622,-16500.371,-16538.27,-16348.998,-16126.409,-15973.637,-15923.987,-15959.122,-16103.077,-16476.979,-17037.566,-17500.97,-17462.406,-16856.26,-16245.364,-15972.915,-15861.83,-15875.307
-15873.055,-15819.605,-15898.954,-16018.532,-16288.593,-16589.102,-16473.957,-16124.29,-15847.3,-15714.709,-15823.613,-16191.737,-16631.11,-16780.926,-16578.975,-16286.046,-16103.777,-16153.495,-16270.189,-16261.142,-16241.731,-16255.794,-16337.564,-16428.096,-16360.512
-16271.333,-16266.59,-16233.346,-16092.472,-15950.638,-15888.467,-15848.186,-15894.173,-15949.417,-15974.014,-16054.3125,-16073.423,-16089.699,-16134.381,-16131.039,-16142.4795,-16157.31,-16221.237,-16268.356,-16194.639,-16115.493,-16054.767,-16034.65,-16077.247,-16109.624
-16141.331,-16178.388,-16211.998,-16277.498,-16373.512,-16481.934,-16579.893,-16551.51,-16394.68,-16325.759,-16315.475,-16238.757,-16213.105,-16213.644,-16199.166,-16236.29,-16251.375,-16237.377,-16246.879,-16277.342,-16342.791,-16462.871,-16627.074,-16740.691,-16710.299
-16585.615,-16545.016,-16589.787,-16516.373,-16310.604,-16169.083,-16164.851,-16156.75,-16147.513,-16194.747,-16206.42,-16214.657,-16258.226,-16314.806,-16371.486,-16384.223,-16370.059,-16365.472,-16358.875,-16366.212,-16471.875,-16591.953,-16558.738,-16411.627,-16293.189
-16336.166,-16553.412,-16778.115,-16791.686,-16636.854,-16524.268,-16477.865,-16419.463,-16280.802,-16201.817,-16307.084,-16490.297,-16693.912,-16829.65,-16950.9,-17068.385,-17007.738,-16807.242,-16431.545,-16036.659,-15933.779,-16074.049,-16450.46,-17006.17,-17466.162
-17390.332,-16789.344,-16309.259,-16049.846,-16062.486,-16392.975,-16494.4,-16331.421,-16149.727,-16050.906,-16084.447,-16078.452,-16062.399,-16077.353,-16128.904,-16220.382,-16240.692,-16302.323,-16416.893,-16509.04,-16621.926,-16629.28,-16493.123,-16357.886,-16403.643
-16673.203,-17029.346,-17350.78,-17329.047,-16901.486,-16485.508,-16281.397,-16240.171,-16313.073,-16581.822,-16855.73,-16695.523,-16334.971,-16172.814,-16255.878,-16537.39,-16772.52,-16749.652,-16503.928,-16314.822,-16164.222,-15912.842,-15840.697,-15924.93,-16063.204
-16216.926,-16296.513,-16436.404,-16602.318,-16862.32,-17040.775,-16842.766,-16556.688,-16385.486,-16358.685,-16374.966,-16386.547,-16383.229,-16255.637,-16161.726,-16092.661,-16066.792,-16144.793,-16172.993,-16197.004,-16219.106,-16239.032,-16282.07,-16328.113,-16451.424
-16607.15,-16688.945,-16653.127,-16610.229,-16615.164,-16528.482,-16406.092,-16383.489,-16429.766,-16466.406,-16495.715,-16522.521,-16459.336,-16347.312,-16304.656,-16377.741,-16543.31,-16589.09,-16495.523,-16498.88,-16530.75,-16489.703,-16480.295,-16570.238,-16688.537
-16602.123,-16365.879,-16245.0205,-16259.776,-16356.498,-16494.998,-16601.104,-16581.97,-16569.03,-16639.39,-16532.002,-16443.357,-16651.963,-16770.176,-16657.242,-16702.86,-16854.287,-16776.924,-16713.463,-16772.016,-16730.172,-16602.719,-16300.611,-16074.035,-16081.05
-16027.921,-16040.069,-16106.705,-16150.724,-16207.092,-16198.74,-16208.17,-16192.039,-16178.988,-16180.939,-16194.573,-16291.073,-16340.286,-16345.6875,-16353.493,-16411.994,-16479.549,-16471.809,-16502.48,-16526.498,-16523.307,-16550.605,-16637.523,-16766.592,-16723.021
-16541.895,-16426.13,-16343.051,-16329.129,-16514.467,-16760.389,-16846.95,-16844.926,-16926.479,-17131.002,-17215.354,-16875.04,-16410.344,-16166.373,-16022.339,-16024.6045,-16124.337,-16171.23,-16245.202,-16279.14,-16246.635,-16199.6455,-16143.612,-16120.566,-16104.883
-16093.593,-16094.209,-16113.863,-16155.44,-16199.216,-16259.168,-16332.419,-16413.08,-16492.672,-16599.934,-16784.072,-16950.025,-16911.887,-16729.336,-16613.873,-16532.564,-16478.162,-16488.549,-16417.223,-16283.169,-16194.761,-16167.753,-16184.369,-16180.123,-16212.161
-16347.946,-16532.604,-16659.102,-16698.52,-16732.77,-16744.035,-16718.756,-16642.945,-16546.523,-16532.367,-16496.807,-16455.049,-16429.152,-16303.81,-16202.165,-16169.363,-16197.342,-16289.028,-16322.705,-16328.354,-16334.769,-16300.561,-16283.442,-16302.116,-16310.132
-16341.402,-16393.342,-16423.13,-16491.385,-16597.547,-16696.936,-16718.078,-16627.207,-16499.086,-16395.129,-16407.803,-16483.568,-16532.51,-16527.209,-16519.758,-16670.287,-16744.393,-16700.766,-16894.416,-17145.324,-17112.992,-16882.543,-16664.973,-16403.545,-16193.666
-16316.188,-16555.174,-16674.467,-16601.984,-16343.51,-16169.184,-16055.052,-15957.056,-15975.818,-15983.515,-16026.372,-16111.592,-16182.739,-16345.935,-16523.479,-16629.812,-16684.47,-16704.32,-16610.047,-16462.965,-16452.406,-16497.375,-16577.379,-16635.307,-16672.986
-16709.152,-16510.893,-16312.086,-16405.018,-16722.824,-17003.021,-17067.564,-17347.014,-17659.771,-17252.443,-16478.654,-16055.671,-16018.805,-16117.559,-16134.062,-16102.752,-16127.346,-16118.245,-16129.336,-16259.32,-16376.063,-16368.792,-16321.974,-16272.581,-16189.304
-16183.444,-16221.931,-16243.568,-16272.244,-16220.349,-16197.071,-16237.071,-16255.076,-16333.56,-16414.379,-16461.564,-16507.781,-16521.344,-16528.805,-16513.72,-16481.35,-16456.695,-16424.453,-16414.707,-16425.047,-16426.557,-16400.488,-16324.818,-16249.717,-16238.255
-16266.264,-16330.129,-16453.02,-16580.752,-16691.406,-16795.994,-16825.676,-16747.832,-16617.152,-16491.648,-16416.406,-16412.252,-16491.889,-16617.781,-16699.395,-16655.045,-16408.105,-16122.727,-16061.731,-16196.744,-16463.7,-16716.04,-16760.338,-16786.531,-16968.76
-17144.924,-17128.271,-16925.744,-16648.732,-16435.271,-16392.84,-16356.337,-16244.564,-16149.216,-16069.019,-16095.54,-16174.475,-16253.486,-16339.479,-16309.502,-16275.41,-16248.937,-16184.617,-16204.741,-16243.221,-16294.804,-16343.406,-16369.929,-16464.016,-16485.752
-16462.936,-16527.486,-16579.912,-16660.734,-16822.107,-17005.281,-17071.082,-16913.688,-16785.062,-16823.85,-16779.219,-16517.531,-16239.892,-16155.968,-16137.504,-16128.941,-16195.859,-16226.411,-16309.939,-16641.115,-17246.963,-17642.312,-17263.291,-16665.973,-16414.658
-16275.753,-16153.142,-16072.817,-16195.612,-16472.943,-16493.69,-16372.997,-16364.487,-16451.027,-16669.11,-16759.363,-16519.943,-16300.253,-16225.441,-16157.165,-16161.414,-16199.372,-16238.143,-16311.147,-16366.631,-16370.735,-16327.2295,-16321.717,-16303.587,-16268.85
-16332.417,-16398.082,-16392.95,-16361.98,-16429.186,-16537.232,-16556.63,-16564.432,-16519.076,-16468.734,-16436.162,-16391.916,-16396.268,-16362.332,-16359.716,-16405.367,-16435.057,-16486.367,-16582.992,-16717.918,-16696.832,-16551.652,-16440.455,-16365.759,-16329.676
-16300.964,-16357.727,-16469.5,-16547.547,-16542.93,-16433.93,-16402.129,-16445.56,-16563.438,-16826.26,-16917.895,-16643.418,-16355.897,-16333.791,-16332.827,-16291.918,-16389.156,-16447.68,-16413.25,-16405.834,-16396.357,-16409.61,-16434.602,-16407.207,-16405.754
-16537.373,-16755.05,-16929.244,-17103.639,-17298.404,-17177.627,-16861.244,-16780.008,-16646.154,-16355.129,-16123.774,-15940.648,-15946.843,-16107.684,-16294.933,-16418.393,-16387.264,-16378.251,-16385.203,-16301.526,-16237.415,-16240.944,-16333.78,-16545.13,-16720.658
-16666.826,-16395.506,-16100.738,-16077.836,-16336.047,-16571.3,-16615.473,-16537.615,-16526.275,-16527.951,-16495.945,-16502.861,-16460.645,-16427.953,-16383.944,-16309.597,-16284.148,-16301.235,-16441.46,-16520.979,-16456.69,-16407.238,-16341.608,-16319.917,-16355.511
-16432.615,-16590.973,-16671.771,-16635.678,-16662.666,-16759.137,-16817.066,-16842.11,-16835.791,-16813.832,-16901.03,-16975.25,-16690.31,-16271.936,-16104.5,-16052.152,-16094.18,-16155.8545,-16142.595,-16210.324,-16259.186,-16333.245,-16434.047,-16432.117,-16473.81
-16489.043,-16467.943,-16443.889,-16364.836,-16341.121,-16316.892,-16298.1875,-16313.381,-16363.263,-16559.633,-16765.969,-16806.025,-16743.572,-16629.553,-16399.86,-16241.688,-16294.138,-16378.332,-16479.705,-16577.371,-16638.762,-16631.969,-16557.152,-16527.035,-16429.113
-16339.117,-16321.737,-16262.327,-16257.89,-16241.352,-16193.405,-16214.511,-16351.101,-16708.742,-17018.861,-16948.791,-16768.756,-16659.088,-16498.402,-16465.98,-16542.516,-16630.504,-16807.768,-16794.299,-16529.299,-16243.46,-16009.845,-15916.871,-15929.596,-15978.5
-16073.324,-16156.037,-16250.017,-16372.219,-16428.379,-16448.764,-16471.135,-16477.287,-16489.424,-16500.541,-16517.88,-16552.053,-16612.586,-16630.26,-16554.443,-16491.002,-16454.354,-16462.861,-16616.834,-16788.742,-16745.768,-16582.242,-16648.926,-17013.791,-17214.646
-16945.305,-16732.4,-16954.64,-17285.102,-17568.248,-17508.234,-16821.996,-16150.78,-15905.748,-15833.897,-15919.128,-16084.604,-16219.225,-16349.595,-16356.213,-16253.516,-16201.075,-16199.195,-16148.57,-16102.15,-16118.405,-16141.192,-16186.779,-16238.615,-16301.229
-16365.421,-16388.607,-16405.154,-16413.145,-16445.682,-16487.328,-16493.52,-16455.758,-16376.26,-16342.079,-16338.513,-16334.127,-16348.996,-16359.743,-16380.678,-16401.39,-16461.59,-16581.318,-16631.47,-16613.982,-16610.639,-16576.477,-16509.463,-16443.717,-16360.655
-16293.916,-16302.747,-16347.328,-16359.601,-16376.0625,-16403.506,-16416.48,-16460.334,-16482.13,-16435.594,-16426.562,-16509.117,-16604.459,-16605.69,-16496.998,-16372.283,-16334.548,-16368.759,-16392.867,-16421.28,-16518.164,-16715.924,-16910.28,-16875.389,-16689.826
-16674.398,-16770.91,-16711.436,-16625.525,-16704.068,-16665.605,-16420.832,-16286.449,-16201.362,-16090.559,-16064.376,-16068.364,-16159.206,-16284.13,-16354.983,-16397.092,-16388.736,-16404.102,-16395.334,-16364.377,-16366.79,-16340.874,-16329.082,-16329.399,-16358.474
-16449.967,-16581.072,-16639.145,-16592.1,-16749.072,-17045.312,-17056.393,-16774.066,-16491.46,-16411.234,-16504.25,-16605.934,-16518.66,-16362.331,-16375.116,-16443.139,-16492.326,-16523.787,-16576.924,-16590.232,-16363.035,-16130.643,-16066.718,-16009.124,-16020.371
-16141.786,-16254.732,-16383.299,-16584.89,-16730.576,-16678.453,-16552.959,-16473.254,-16359.858,-16326.732,-16397.94,-16384.412,-16356.5,-16344.899,-16301.016,-16261.537,-16235.012,-16245.241,-16254.593,-16270.095,-16315.964,-16369.097,-16420.898,-16435.236,-16445.629
-16457.008,-16456.38,-16493.428,-16563.629,-16653.059,-16762.496,-16915.912,-17078.287,-17130.13,-16969.682,-16593.863,-16252.691,-16107.338,-16051.116,-16065.47,-16124.546,-16193.957,-16305.16,-16406.178,-16439.076,-16410.496,-16380.744,-16361.214,-16356.26,-16363.566
-16310.121,-16251.669,-16251.434,-16267.429,-16276.792,-16288.034,-16317.486,-16362.919,-16435.451,-16490.322,-16507.15,-16514.27,-16484.072,-16485.793,-16585.465,-16725.695,-16813.566,-16855.436,-16958.043,-16940.145,-16685.168,-16460.646,-16274.214,-16159.419,-16269.857
-16337.901,-16282.03,-16252.937,-16238.744,-16272.992,-16316.34,-16346.698,-16401.156,-16431.076,-16436.18,-16428.445,-16391.492,-16346.612,-16317.833,-16285.452,-16267.043,-16281.065,-16318.095,-16435.336,-16571.816,-16612.541,-16636.723,-16685.537,-16726.43,-16760.35
-16698.855,-16576.715,-16486.95,-16436.793,-16461.045,-16449.422,-16391.969,-16344.199,-16297.152,-16308.626,-16276.797,-16232.148,-16234.423,-16245.767,-16378.094,-16593.922,-16750.373,-16767.807,-16747.986,-16803.621,-16959.408,-17179.389,-17046.068,-16555.998,-16239.378
-16095.622,-15982.958,-16007.98,-16112.635,-16205.465,-16301.557,-16351.881,-16342.203,-16326.707,-16290.551,-16246.451,-16240.374,-16255.209,-16264.505,-16264.491,-16272.397,-16327.79,-16460.65,-16597.547,-16584.967,-16496.807,-16494.404,-16516.557,-16602.375,-16738.06
-16713.674,-16556.482,-16436.996,-16488.11,-16603.156,-16621.102,-16596.547,-16523.496,-16492.762,-16477.832,-16412.803,-16415.826,-16374.322,-16287.59,-16184.541,-16112.951,-16193.397,-16271.363,-16352.956,-16417.025,-16430.04,-16467.248,-16437.822,-16410.72,-16397.768
-16426.81,-16538.076,-16516.586,-16391.443,-16274.861,-16194.512,-16220.795,-16275.084,-16358.261,-16573.129,-16881.613,-17130.012,-17187.854,-17168.139,-17123.807,-16882.12,-16530.484,-16277.239,-16170.274,-16135.245,-16110.963,-16155.326,-16236.038,-16377.641,-16518.225
-16518.025,-16483.184,-16369.006,-16207.239,-16171.156,-16235.047,-16313.81,-16301.099,-16300.516,-16354.107,-16364.373,-16385.06,-16403.088,-16446.307,-16477.285,-16467.445,-16577.184,-16762.438,-16874.059,-16819.924,-16582.156,-16304.6045,-16148.648,-16136.252,-16185.781
-16281.078,-16365.535,-16375.988,-16384.92,-16408.281,-16419.85,-16422.64,-16399.941,-16362.884,-16340.692,-16335.95,-16339.485,-16348.947,-16398.0,-16524.715,-16667.01,-16738.164,-16675.424,-16512.049,-16430.89,-16400.256,-16330.911,-16333.261,-16354.965,-16363.312
-16402.602,-16407.283,-16411.729,-16416.922,-16392.137,-16375.565,-16393.896,-16458.412,-16484.436,-16466.268,-16504.367,-16594.697,-16612.15,-16499.506,-16442.557,-16516.4,-16622.23,-16747.754,-16785.05,-16672.74,-16548.3,-16471.354,-16377.463,-16261.097,-16241.566
-16299.859,-16312.685,-16299.262,-16262.377,-16231.018,-16223.387,-16188.203,-16177.928,-16191.077,-16218.724,-16281.198,-16333.783,-16394.54,-16463.615,-16513.768,-16539.03,-16547.256,-16550.584,-16509.412,-16456.738,-16430.557,-16394.236,-16368.759,-16370.985,-16397.098
-16438.203,-16450.893,-16454.43,-16487.645,-16515.252,-16515.297,-16492.697,-16454.328,-16457.207,-16524.582,-16638.684,-16743.904,-16732.21,-16667.379,-16586.143,-16410.074,-16315.3125,-16337.02,-16258.349,-16170.9375,-16217.823,-16302.348,-16360.063,-16374.997,-16368.666
-16396.256,-16435.318,-16524.986,-16574.797,-16472.293,-16456.283,-16546.166,-16627.922,-16715.414,-16659.404,-16507.6,-16365.059,-16310.54,-16421.074,-16498.018,-16560.43,-16596.83,-16450.713,-16392.998,-16554.223,-16743.363,-16807.945,-16692.367,-16495.553,-16277.892
-16131.15,-16086.883,-16074.757,-16169.607,-16308.959,-16377.513,-16385.617,-16361.852,-16338.146,-16289.861,-16269.528,-16279.455,-16287.867,-16318.665,-16341.372,-16420.979,-16564.09,-16643.969,-16628.188,-16606.568,-16564.344,-16455.021,-16444.648,-16502.61,-16461.736
-16414.463,-16402.35,-16368.392,-16341.034,-16337.415,-16355.642,-16402.102,-16458.18,-16517.799,-16593.39,-16660.79,-16664.34,-16533.59,-16328.051,-16345.404,-16589.871,-16660.484,-16542.592,-16460.877,-16440.844,-16529.25,-16616.365,-16565.488,-16493.291,-16434.697
-16355.986,-16280.254,-16226.108,-16204.897,-16199.514,-16211.93,-16178.323,-16126.947,-16161.359,-16204.224,-16255.734,-16318.266,-16376.907,-16488.28,-16577.287,-16632.684,-16643.205,-16591.229,-16563.076,-16563.377,-16552.418,-16489.121,-16420.664,-16377.994,-16356.545
-16397.902,-16417.797,-16431.533,-16521.969,-16554.633,-16452.623,-16372.815,-16377.374,-16363.528,-16339.467,-16345.556,-16361.096,-16369.711,-16402.367,-16488.02,-16569.307,-16594.316,-16574.283,-16591.42,-16709.709,-16873.361,-16803.264,-16478.83,-16329.271,-16349.297
-16510.686,-16926.668,-17276.244,-17351.357,-17094.998,-16710.31,-16451.404,-16216.454,-16052.713,-16028.544,-16060.744,-16077.866,-16121.592,-16167.418,-16164.513,-16190.959,-16176.512,-16153.116,-16144.091,-16134.902,-16187.939,-16232.332,-16294.685,-16355.458,-16406.36
-16493.57,-16563.174,-16599.941,-16603.928,-16596.746,-16567.418,-16569.775,-16573.768,-16505.314,-16489.176,-16479.45,-16402.281,-16339.683,-16317.99,-16324.635,-16333.351,-16348.211,-16429.0,-16556.61,-16560.25,-16477.969,-16446.488,-16405.443,-16379.143,-16377.439
-16387.188,-16402.584,-16387.697,-16415.732,-16422.775,-16379.386,-16358.226,-16316.753,-16284.788,-16268.685,-16270.35,-16337.904,-16453.768,-16547.191,-16522.127,-16445.205,-16393.014,-16376.153,-16420.863,-16449.906,-16495.045,-16607.535,-16719.297,-16757.266,-16704.277
-16721.926,-16775.244,-16650.467,-16445.865,-16358.21,-16357.844,-16344.414,-16312.405,-16310.557,-16463.633,-16593.092,-16478.604,-16487.945,-16686.877,-16703.13,-16534.68,-16406.104,-16395.984,-16368.901,-16294.315,-16257.526,-16254.674,-16254.545,-16233.782,-16206.862
-16207.909,-16255.318,-16338.199,-16492.176,-16610.281,-16566.252,-16546.646,-16574.031,-16546.559,-16529.154,-16482.041,-16411.93,-16382.645,-16334.274,-16297.031,-16313.254,-16341.4,-16374.239,-16358.568,-16316.687,-16302.766,-16278.855,-16283.658,-16335.802,-16423.4
-16509.14,-16500.688,-16453.146,-16447.596,-16454.148,-16456.092,-16464.0,-16472.943,-16481.209,-16518.592,-16568.838,-16569.062,-16528.885,-16482.014,-16446.246,-16494.207,-16665.67,-16770.81,-16595.959,-16334.471,-16233.501,-16256.134,-16347.33,-16405.799,-16445.842
-16553.945,-16646.309,-16676.07,-16570.537,-16412.973,-16354.78,-16315.97,-16317.113,-16332.751,-16299.297,-16356.73,-16503.617,-16582.684,-16548.33,-16426.75,-16316.435,-16297.683,-16288.124,-16316.7705,-16413.004,-16436.229,-16407.512,-16388.012,-16365.686,-16365.06
-16370.747,-16373.668,-16370.364,-16351.453,-16346.836,-16348.469,-16338.519,-16338.795,-16356.358,-16380.448,-16382.69,-16379.205,-16410.145,-16440.379,-16452.572,-16476.684,-16519.133,-16548.266,-16552.363,-16573.016,-16590.777,-16593.863,-16607.54,-16593.12,-16597.754
-16607.678,-16505.18,-16401.498,-16360.318,-16309.863,-16294.876,-16280.2,-16253.734,-16272.491,-16300.159,-16354.741,-16411.178,-16436.025,-16488.371,-16553.535,-16626.762,-16678.125,-16669.105,-16690.348,-16805.703,-16893.521,-16693.225,-16349.372,-16220.38,-16191.666
-16209.888,-16266.578,-16248.21,-16293.762,-16336.521,-16336.665,-16385.715,-16400.217,-16404.236,-16416.11,-16481.908,-16563.285,-16559.744,-16512.135,-16437.047,-16444.37,-16465.693,-16388.242,-16317.046,-16272.71,-16286.154,-16329.521,-16378.063,-16434.586,-16451.932
-16457.906,-16460.64,-16513.852,-16566.447,-16555.098,-16553.04,-16480.992,-16360.046,-16304.528,-16281.331,-16293.04,-16327.589,-16353.497,-16417.518,-16480.484,-16470.453,-16462.943,-16499.258,-16533.424,-16550.158,-16562.111,-16598.402,-16602.67,-16540.541,-16456.32
-16343.987,-16248.676,-16200.6045,-16209.146,-16276.8125,-16324.506,-16381.772,-16433.336,-16443.3,-16511.428,-16580.457,-16616.562,-16662.428,-16623.672,-16576.336,-16671.584,-16745.07,-16620.812,-16409.58,-16251.788,-16197.757,-16249.952,-16315.285,-16293.386,-16220.001
-16204.151,-16235.625,-16280.632,-16358.569,-16426.746,-16462.848,-16461.135,-16458.986,-16505.627,-16541.305,-16574.172,-16589.979,-16558.883,-16552.053,-16508.984,-16437.299,-16407.479,-16350.829,-16301.54,-16283.953,-16275.922,-16294.201,-16322.107,-16396.602,-16491.693
-16531.13,-16485.172,-16385.799,-16319.966,-16265.767,-16242.177,-16274.904,-16298.468,-16345.264,-16393.494,-16410.49,-16426.35,-16424.184,-16467.234,-16554.605,-16574.51,-16553.033,-16535.883,-16477.367,-16453.252,-16518.129,-16539.09,-16518.822,-16487.244,-16400.006
-16340.489,-16333.243,-16364.359,-16419.06,-16434.723,-16404.65,-16348.757,-16340.163,-16396.068,-16442.324,-16455.738,-16452.924,-16473.607,-16580.63,-16769.686,-16872.465,-16780.836,-16547.807,-16310.109,-16254.49,-16306.083,-16324.77,-16334.154,-16331.916,-16366.441
-16380.254,-16336.709,-16328.755,-16310.6,-16324.941,-16401.408,-16454.39,-16475.203,-16443.668,-16380.62,-16310.444,-16262.431,-16263.204,-16280.582,-16327.621,-16386.906,-16446.65,-16508.32,-16571.027,-16668.188,-16694.953,-16609.314,-16576.432,-16584.355,-16538.66
-16503.547,-16467.496,-16407.693,-16355.315,-16317.828,-16326.935,-16337.099,-16351.042,-16406.969,-16426.371,-16379.439,-16320.631,-16288.492,-16311.269,-16393.252,-16481.662,-16579.113,-16619.814,-16579.998,-16604.744,-16611.08,-16550.74,-16484.785,-16417.908,-16509.646
-16734.043,-16888.816,-16878.479,-16707.943,-16520.24,-16382.826,-16244.533,-16137.628,-16099.597,-16126.456,-16184.151,-16194.579,-16213.233,-16249.733,-16252.218,-16285.192,-16309.525,-16322.959,-16337.545,-16332.958,-16362.537,-16398.98,-16435.2,-16438.51,-16407.197
-16419.04,-16452.508,-16473.566,-16460.393,-16463.861,-16516.777,-16537.924,-16530.357,-16546.408,-16550.424,-16496.27,-16453.053,-16434.15,-16384.475,-16358.79,-16355.433,-16374.024,-16457.527,-16529.26,-16513.527,-16430.664,-16375.155,-16372.7,-16361.758,-16362.995
-16416.248,-16485.549,-16552.592,-16644.06,-16694.408,-16650.963,-16583.664,-16519.615,-16452.568,-16389.043,-16325.184,-16268.334,-16271.857,-16357.779,-16416.875,-16420.887,-16420.598,-16406.455,-16399.379,-16412.8,-16463.992,-16490.664,-16429.578,-16393.305,-16390.535
-16375.687,-16358.68,-16329.466,-16315.37,-16302.731,-16329.985,-16407.643,-16491.188,-16583.031,-16575.08,-16499.281,-16483.12,-16509.227,-16583.629,-16676.861,-16779.246,-16810.629,-16639.443,-16509.055,-16553.426,-16483.936,-16325.454,-16306.51,-16320.129,-16284.998
-16273.281,-16270.572,-16282.823,-16302.712,-16312.929,-16333.761,-16342.546,-16353.304,-16365.903,-16373.219,-16408.09,-16485.219,-16546.549,-16493.568,-16430.898,-16428.0,-16409.232,-16418.727,-16425.428,-16409.654,-16423.092,-16427.604,-16434.451,-16438.477,-16425.2
-16423.715,-16416.496,-16402.25,-16385.719,-16373.005,-16374.6,-16377.907,-16388.36,-16419.664,-16474.156,-16506.094,-16491.46,-16495.719,-16552.174,-16659.973,-16747.21,-16679.998,-16532.682,-16460.22,-16485.803,-16580.092,-16648.738,-16683.395,-16675.074,-16524.975
-16360.078,-16292.91,-16301.226,-16383.461,-16420.4,-16426.465,-16486.096,-16540.006,-16573.447,-16596.574,-16674.805,-16745.855,-16661.252,-16498.469,-16350.915,-16249.869,-16182.266,-16168.271,-16244.705,-16332.659,-16417.367,-16476.514,-16452.318,-16361.805,-16297.392
-16306.501,-16315.971,-16348.7,-16394.576,-16414.973,-16449.857,-16495.752,-16563.623,-16605.691,-16595.904,-16542.975,-16468.432,-16431.23,-16400.977,-16396.193,-16420.723,-16450.37,-16481.492,-16485.887,-16500.434,-16496.686,-16470.086,-16454.879,-16436.086,-16426.809
-16411.588,-16418.035,-16444.758,-16477.273,-16524.531,-16537.686,-16545.219,-16528.564,-16491.318,-16454.738,-16349.032,-16321.912,-16366.355,-16339.501,-16365.863,-16423.625,-16471.602,-16502.559,-16484.488,-16500.395,-16453.016,-16366.204,-16339.626,-16339.333,-16423.826
-16474.705,-16446.49,-16439.357,-16418.285,-16420.123,-16470.514,-16546.877,-16567.479,-16478.756,-16416.062,-16400.81,-16374.201,-16363.507,-16371.559,-16386.162,-16401.197,-16473.922,-16641.31,-16784.326,-16788.95,-16726.44,-16664.979,-16525.512,-16392.637,-16413.605
-16495.662,-16531.625,-16503.594,-16435.188,-16380.842,-16344.862,-16322.248,-16358.581,-16432.033,-16468.127,-16447.154,-16362.212,-16338.961,-16470.732,-16574.67,-16529.455,-16452.732,-16422.64,-16371.532,-16353.954,-16412.547,-16436.645,-16452.441,-16474.377,-16466.0
-16486.863,-16525.83,-16506.86,-16446.492,-16410.613,-16387.203,-16403.994,-16505.715,-16601.396,-16634.545,-16627.168,-16601.963,-16590.166,-16531.414,-16444.03,-16491.701,-16582.047,-16586.266,-16642.512,-16681.178,-16534.527,-16364.662,-16273.945,-16216.339,-16223.397
-16241.126,-16254.254,-16291.267,-16313.369,-16334.687,-16342.814,-16371.773,-16430.252,-16476.031,-16550.453,-16562.441,-16489.066,-16456.686,-16458.178,-16481.264,-16503.922,-16499.105,-16511.611,-16513.426,-16520.709,-16583.625,-16580.76,-16482.543,-16430.236,-16407.14
-16361.567,-16342.568,-16328.766,-16348.044,-16434.654,-16499.22,-16513.16,-16480.936,-16438.266,-16440.99,-16443.617,-16438.783,-16439.547,-16431.238,-16433.771,-16425.023,-16400.633,-16387.719,-16385.623,-16421.703,-16465.826,-16454.143,-16466.979,-16534.967,-16550.283
-16554.225,-16567.066,-16511.717,-16466.643,-16437.861,-16411.623,-16446.219,-16464.39,-16462.295,-16473.895,-16475.646,-16476.014,-16459.816,-16464.691,-16495.72,-16499.664,-16499.764,-16514.178,-16508.895,-16513.73,-16576.578,-16618.36,-16583.191,-16504.758,-16463.867
-16492.924,-16507.965,-16497.666,-16447.5,-16390.383,-16379.6045,-16360.863,-16407.764,-16499.426,-16497.756,-16414.521,-16353.284,-16361.781,-16367.201,-16412.271,-16464.605,-16425.889,-16408.094,-16429.314,-16462.424,-16496.297,-16502.041,-16519.98,-16546.213,-16611.527
-16678.693,-16620.916,-16489.617,-16397.367,-16339.762,-16309.154,-16378.842,-16578.406,-16806.705,-16913.545,-16829.045,-16613.264,-16413.625,-16315.936,-16284.458,-16290.626,-16316.822,-16359.61,-16390.246,-16380.575,-16385.531,-16391.236,-16376.745,-16344.881,-16304.497
-16294.135,-16279.132,-16278.485,-16303.672,-16327.846,-16374.226,-16412.99,-16464.963,-16562.297,-16654.527,-16669.166,-16602.291,-16557.475,-16549.398,-16561.398,-16583.936,-16561.588,-16545.723,-16554.85,-16572.049,-16615.623,-16575.105,-16406.316,-16268.866,-16239.477
-16250.447,-16289.074,-16337.856,-16377.695,-16436.52,-16482.316,-16540.738,-16621.045,-16678.557,-16717.512,-16663.807,-16557.041,-16511.135,-16433.086,-16320.156,-16306.248,-16331.626,-16339.311,-16381.47,-16406.742,-16403.621,-16418.234,-16463.836,-16496.691,-16468.057
-16455.19,-16443.465,-16433.838,-16458.516,-16429.414,-16413.793,-16437.0,-16443.725,-16467.695,-16522.166,-16590.709,-16567.559,-16480.035,-16453.68,-16428.426,-16383.128,-16377.38,-16387.207,-16455.375,-16613.123,-16728.596,-16829.812,-16985.746,-17037.893,-16866.064
-16525.52,-16247.965,-16131.828,-16090.085,-16130.216,-16180.201,-16221.034,-16291.741,-16332.101,-16360.755,-16368.073,-16373.178,-16405.889,-16418.273,-16421.838,-16420.629,-16424.514,-16426.691,-16451.773,-16547.678,-16613.246,-16589.033,-16545.451,-16506.8,-16451.742
-16419.85,-16429.994,-16441.36,-16444.727,-16449.14,-16486.709,-16514.426,-16489.756,-16485.502,-16495.342,-16488.023,-16495.775,-16502.137,-16464.027,-16411.732,-16402.291,-16421.693,-16431.396,-16426.69,-16432.426,-16431.61,-16424.293,-16482.457,-16605.766,-16702.86
-16663.41,-16516.104,-16418.926,-16397.354,-16370.088,-16326.904,-16313.689,-16312.052,-16300.772,-16305.86,-16319.109,-16352.398,-16407.06,-16461.127,-16518.193,-16573.209,-16612.107,-16595.652,-16539.402,-16550.754,-16663.107,-16731.922,-16666.406,-16564.076,-16463.736
-16386.36,-16355.708,-16319.223,-16338.802,-16419.186,-16463.455,-16492.451,-16471.03,-16435.623,-16537.27,-16666.484,-16707.057,-16643.045,-16457.086,-16341.53,-16302.262,-16226.975,-16239.539,-16304.836,-16352.489,-16410.953,-16458.824,-16483.105,-16435.473,-16383.715
-16393.404,-16403.709,-16459.44,-16540.434,-16535.56,-16503.664,-16515.838,-16513.715,-16478.75,-16429.9,-16377.802,-16363.75,-16376.661,-16402.963,-16431.102,-16430.84,-16431.914,-16426.54,-16414.068,-16413.018,-16400.387,-16422.441,-16531.895,-16663.691,-16689.986
-16614.723,-16526.922,-16453.44,-16403.7,-16365.931,-16382.356,-16459.443,-16529.29,-16559.965,-16527.287,-16499.467,-16472.834,-16429.408,-16412.738,-16361.255,-16345.832,-16375.254,-16381.471,-16406.977,-16437.395,-16487.414,-16515.527,-16578.398,-16729.234,-16826.248
-16831.133,-16767.28,-16788.408,-16835.666,-16676.771,-16462.254,-16318.598,-16237.269,-16188.561,-16178.961,-16242.923,-16269.672,-16289.534,-16325.957,-16341.898,-16395.867,-16426.484,-16428.967,-16468.977,-16482.488,-16416.07,-16359.874,-16362.702,-16362.26,-16361.276
-16368.414,-16404.275,-16474.957,-16523.121,-16543.809,-16575.693,-16654.445,-16720.453,-16698.264,-16615.082,-16534.148,-16471.172,-16418.861,-16419.197,-16408.912,-16359.296,-16375.84,-16437.492,-16502.11,-16534.158,-16509.326,-16474.434,-16417.846,-16393.941,-16437.957
-16439.604,-16401.104,-16442.865,-16533.422,-16543.295,-16508.37,-16425.285,-16308.738,-16314.235,-16359.311,-16377.302,-16403.389,-16398.684,-16411.229,-16436.207,-16470.568,-16526.145,-16560.05,-16565.027,-16540.47,-16566.643,-16676.29,-16726.832,-16666.867,-16629.979
-16575.686,-16429.494,-16364.39,-16336.614,-16276.574,-16282.522,-16298.86,-16342.426,-16386.709,-16395.582,-16436.34,-16461.934,-16484.201,-16482.826,-16451.176,-16446.717,-16420.83,-16401.053,-16395.37,-16380.57,-16387.049,-16391.963,-16404.932,-16433.746,-16486.008
-16589.893,-16651.66,-16599.121,-16539.584,-16556.451,-16627.438,-16699.123,-16707.32,-16698.104,-16709.832,-16694.023,-16685.06,-16639.219,-16533.848,-16523.945,-16525.16,-16413.129,-16369.931,-16398.16,-16437.066,-16655.55,-16928.637,-16924.3,-16681.932,-16492.22
-16394.057,-16294.326,-16261.837,-16272.054,-16277.129,-16303.895,-16368.032,-16443.756,-16465.191,-16530.408,-16640.72,-16704.652,-16690.56,-16523.256,-16354.858,-16272.354,-16217.135,-16246.82,-16301.264,-16363.934,-16441.617,-16465.557,-16478.385,-16477.91,-16464.316
-16477.348,-16474.695,-16450.607,-16433.412,-16411.746,-16383.638,-16403.549,-16474.488,-16511.967,-16516.717,-16545.266,-16577.883,-16612.78,-16653.857,-16628.613,-16556.791,-16516.197,-16527.914,-16570.52,-16569.018,-16540.277,-16529.137,-16510.318,-16485.574,-16458.404
-16414.602,-16357.501,-16345.399,-16390.629,-16413.926,-16414.443,-16458.05,-16517.121,-16537.52,-16522.754,-16469.664,-16442.078,-16486.805,-16536.674,-16584.43,-16625.057,-16617.398,-16549.305,-16431.121,-16351.288,-16337.365,-16366.202,-16434.54,-16453.055,-16427.408
-16419.498,-16404.547,-16424.69,-16493.076,-16530.1,-16517.863,-16459.158,-16379.264,-16360.598,-16374.585,-16382.717,-16402.293,-16405.705,-16429.787,-16465.695,-16460.8,-16448.514,-16455.553,-16471.266,-16490.84,-16541.496,-16565.994,-16535.06,-16531.459,-16516.295
-16478.223,-16492.08,-16520.383,-16520.52,-16497.297,-16485.395,-16505.35,-16529.947,-16586.799,-16650.982,-16653.717,-16585.4,-16510.547,-16525.906,-16530.658,-16466.701,-16445.996,-16474.574,-16473.91,-16406.91,-16365.06,-16351.141,-16339.766,-16375.955,-16390.094
-16398.117,-16411.742,-16414.547,-16455.072,-16503.557,-16518.336,-16473.77,-16452.115,-16486.307,-16513.496,-16553.357,-16541.566,-16491.242,-16491.352,-16495.633,-16511.617,-16576.574,-16699.54,-16838.145,-16817.074,-16614.514,-16460.549,-16461.68,-16503.05,-16500.213
-16453.078,-16404.938,-16410.527,-16402.816,-16344.061,-16317.552,-16308.291,-16284.459,-16292.892,-16323.957,-16347.957,-16360.459,-16357.266,-16372.639,-16409.436,-16454.385,-16485.326,-16470.715,-16514.186,-16605.354,-16593.914,-16527.91,-16523.791,-16594.357,-16654.35
-16630.158,-16558.738,-16492.932,-16450.873,-16439.309,-16498.117,-16624.74,-16701.26,-16743.469,-16820.102,-16778.016,-16589.725,-16381.9,-16218.203,-16181.885,-16206.923,-16222.241,-16271.473,-16317.895,-16366.078,-16433.875,-16478.725,-16476.65,-16433.045,-16396.191
-16372.424,-16348.947,-16351.397,-16357.276,-16359.317,-16374.565,-16391.576,-16418.115,-16455.994,-16513.164,-16583.79,-16636.988,-16653.844,-16630.994,-16628.398,-16683.186,-16757.906,-16760.865,-16629.55,-16497.826,-16456.045,-16436.541,-16434.092,-16443.254,-16439.34
-16425.11,-16422.467,-16462.25,-16505.922,-16504.701,-16487.906,-16478.986,-16411.91,-16352.0205,-16406.076,-16454.91,-16483.006,-16526.611,-16594.594,-16729.016,-16717.299,-16587.193,-16552.865,-16471.537,-16370.103,-16351.484,-16328.454,-16334.341,-16359.645,-16365.402
-16388.738,-16414.273,-16431.69,-16450.59,-16473.225,-16492.553,-16502.658,-16524.424,-16578.787,-16635.273,-16625.137,-16557.387,-16476.023,-16420.729,-16449.89,-16518.428,-16583.148,-16635.059,-16619.46,-16586.787,-16560.096,-16501.014,-16452.494,-16431.27,-16430.127
-16430.408,-16440.041,-16460.768,-16438.756,-16400.275,-16380.831,-16397.023,-16450.217,-16465.957,-16469.488,-16525.662,-16550.236,-16546.635,-16611.729,-16682.79,-16655.838,-16538.514,-16440.473,-16392.857,-16386.498,-16449.42,-16485.996,-16491.877,-16515.973,-16542.031
-16538.559,-16453.719,-16400.85,-16383.9,-16365.836,-16410.48,-16453.064,-16522.207,-16596.402,-16647.463,-16742.389,-16803.688,-16795.918,-16739.385,-16622.488,-16462.559,-16396.207,-16417.176,-16379.488,-16369.813,-16375.509,-16380.745,-16416.533,-16416.883,-16455.418
-16481.357,-16488.838,-16526.861,-16510.09,-16490.475,-16511.13,-16579.059,-16629.875,-16582.1,-16516.918,-16494.64,-16534.748,-16595.781,-16637.002,-16704.389,-16757.309,-16779.982,-16798.71,-16700.393,-16548.76,-16451.53,-16319.838,-16265.215,-16281.39,-16274.137
