0.0,-1999.3625,-8297.101,-14299.3545,-16567.951,-17751.643,-16671.934,-16038.77,-17304.041,-16538.043,-17255.111,-17994.066,-17782.404,-19044.367,-18911.11,-19475.344,-19828.793,-19496.818,-19918.262,-19274.424,-19213.324,-18742.89,-18155.363,-17983.479,-17285.926
-17224.008,-16869.84,-16828.26,-16979.81,-17016.318,-17490.594,-17709.525,-18208.012,-18593.18,-18909.305,-19279.396,-19358.865,-19511.207,-19401.037,-19242.123,-18996.908,-18615.982,-18299.838,-17873.432,-17571.049,-17303.322,-17122.18,-17089.17,-17113.219,-17292.248
-17521.19,-17840.83,-18185.914,-18511.57,-18830.576,-19050.92,-19210.22,-19259.795,-19205.402,-19066.768,-18847.367,-18585.19,-18277.934,-17981.07,-17709.404,-17493.441,-17358.229,-17305.346,-17353.287,-17476.342,-17669.672,-17908.988,-18180.113,-18457.396,-18691.656
-18886.053,-19014.043,-19048.84,-18998.234,-18889.482,-18728.184,-18507.723,-18276.404,-18041.506,-17818.479,-17656.91,-17549.525,-17511.738,-17552.229,-17646.186,-17794.69,-17987.291,-18196.844,-18398.447,-18582.996,-18733.068,-18823.332,-18858.006,-18828.445,-18739.977
-18615.008,-18456.326,-18283.643,-18103.91,-17933.867,-17805.553,-17716.623,-17679.402,-17703.648,-17769.408,-17872.697,-18011.102,-18168.732,-18328.605,-18464.346,-18571.846,-18650.928,-18674.766,-18653.4,-18599.432,-18504.422,-18382.934,-18249.72,-18118.89,-18000.318
-17904.383,-17843.46,-17819.373,-17838.209,-17890.482,-17963.21,-18062.703,-18174.764,-18279.531,-18383.105,-18468.656,-18516.516,-18539.248,-18532.4,-18495.201,-18437.096,-18357.412,-18265.332,-18167.057,-18080.775,-18020.297,-17980.19,-17970.613,-17983.293,-18006.258
-18055.805,-18122.023,-18187.098,-18263.393,-18336.715,-18386.244,-18429.89,-18446.592,-18420.05,-18393.299,-18358.885,-18301.465,-18244.473,-18186.633,-18137.717,-18103.732,-18076.6,-18068.352,-18075.406,-18099.219,-18138.297,-18170.322,-18205.146,-18245.59,-18281.465
-18313.748,-18329.09,-18334.176,-18331.238,-18319.082,-18314.25,-18295.646,-18261.518,-18238.57,-18213.98,-18181.545,-18162.867,-18161.416,-18164.15,-18165.496,-18165.57,-18178.45,-18207.535,-18230.842,-18247.254,-18262.574,-18266.648,-18269.686,-18276.99,-18273.352
-18269.637,-18260.635,-18246.787,-18245.174,-18229.004,-18219.934,-18226.443,-18211.873,-18204.014,-18206.596,-18211.555,-18219.354,-18212.264,-18206.744,-18207.775,-18207.7,-18209.096,-18212.828,-18216.133,-18215.072,-18221.61,-18235.133,-18243.83,-18245.732,-18248.354
-18259.574,-18266.572,-18261.201,-18251.504,-18242.816,-18236.066,-18225.254,-18209.947,-18198.71,-18185.576,-18165.994,-18153.549,-18151.467,-18158.74,-18172.404,-18186.15,-18210.62,-18238.021,-18254.285,-18270.896,-18286.496,-18300.354,-18311.03,-18307.703,-18297.31
-18276.068,-18247.756,-18224.348,-18200.94,-18181.863,-18162.256,-18148.738,-18148.457,-18150.639,-18168.25,-18195.125,-18219.342,-18248.713,-18276.1,-18301.627,-18324.56,-18335.1,-18336.203,-18326.23,-18304.812,-18284.338,-18257.797,-18221.213,-18189.96,-18162.584
-18138.637,-18122.885,-18115.572,-18118.39,-18133.979,-18163.385,-18196.742,-18232.602,-18266.416,-18294.387,-18319.953,-18329.54,-18328.988,-18325.213,-18310.22,-18286.637,-18255.201,-18222.93,-18189.197,-18154.094,-18128.383,-18112.46,-18106.604,-18110.36,-18130.793
-18164.14,-18196.451,-18228.518,-18255.33,-18288.92,-18323.955,-18335.992,-18341.354,-18336.494,-18315.412,-18294.914,-18269.307,-18233.803,-18197.137,-18170.08,-18145.309,-18122.895,-18119.506,-18129.072,-18141.367,-18159.72,-18189.408,-18224.05,-18258.582,-18287.805
-18308.223,-18327.309,-18336.375,-18330.256,-18309.51,-18283.996,-18256.264,-18214.527,-18186.63,-18161.32,-18124.05,-18111.9,-18113.527,-18123.434,-18146.123,-18173.627,-18206.027,-18227.926,-18254.754,-18289.262,-18311.584,-18327.316,-18336.457,-18331.523,-18309.834
-18286.324,-18257.166,-18220.32,-18193.912,-18167.006,-18143.18,-18129.084,-18122.576,-18124.045,-18134.953,-18173.54,-18214.152,-18237.678,-18265.543,-18288.172,-18302.803,-18315.8,-18321.262,-18324.447,-18314.31,-18287.533,-18266.018,-18235.148,-18190.928,-18161.889
-18144.057,-18128.498,-18118.549,-18117.77,-18130.771,-18157.42,-18190.316,-18219.914,-18245.367,-18271.46,-18304.846,-18327.582,-18324.377,-18313.262,-18296.152,-18272.754,-18248.682,-18216.65,-18186.822,-18168.254,-18149.348,-18129.723,-18123.033,-18128.092,-18138.86
-18161.277,-18188.77,-18215.42,-18237.82,-18251.867,-18273.836,-18294.205,-18299.027,-18303.99,-18301.828,-18283.137,-18256.373,-18228.055,-18207.428,-18187.533,-18159.818,-18143.883,-18139.537,-18134.125,-18142.182,-18161.027,-18182.309,-18210.025,-18237.037,-18259.879
-18278.209,-18292.018,-18296.566,-18293.5,-18286.809,-18264.723,-18240.197,-18222.416,-18198.28,-18177.209,-18161.8,-18151.21,-18148.2,-18138.656,-18143.717,-18176.703,-18197.402,-18210.684,-18232.498,-18245.873,-18263.2,-18279.08,-18277.318,-18275.871,-18264.77
-18237.643,-18226.059,-18219.559,-18202.059,-18187.518,-18171.955,-18160.242,-18154.818,-18152.994,-18158.363,-18167.578,-18189.145,-18208.28,-18217.23,-18235.646,-18248.996,-18247.766,-18251.693,-18261.197,-18258.748,-18251.01,-18240.742,-18218.486,-18204.35,-18195.746
-18177.354,-18164.764,-18161.412,-18160.545,-18162.773,-18174.287,-18195.293,-18214.904,-18224.312,-18228.951,-18245.746,-18260.23,-18259.924,-18260.523,-18251.36,-18235.4,-18228.611,-18219.398,-18206.543,-18194.5,-18186.67,-18178.895,-18169.736,-18180.295,-18196.434
-18196.506,-18200.09,-18211.93,-18221.15,-18226.44,-18234.648,-18246.672,-18248.547,-18247.152,-18245.734,-18239.928,-18239.744,-18230.559,-18214.389,-18210.316,-18208.623,-18201.396,-18192.342,-18188.193,-18186.143,-18189.838,-18207.27,-18219.588,-18220.787,-18230.236
-18241.717,-18241.54,-18239.357,-18235.46,-18228.715,-18219.803,-18212.33,-18216.936,-18214.129,-18202.092,-18194.512,-18186.334,-18181.9,-18174.094,-18177.994,-18195.912,-18198.81,-18200.63,-18200.9,-18201.809,-18210.842,-18216.61,-18231.545,-18236.018,-18227.34
-18221.479,-18210.328,-18219.684,-18238.977,-18240.078,-18230.617,-18215.67,-18213.875,-18214.28,-18204.9,-18208.766,-18214.871,-18221.76,-18230.28,-18224.816,-18228.254,-18239.764,-18240.617,-18236.611,-18225.03,-18218.975,-18233.322,-18242.006,-18235.535,-18230.926
-18221.252,-18215.0,-18214.334,-18205.324,-18207.596,-18214.232,-18212.158,-18213.342,-18218.396,-18227.7,-18227.988,-18228.47,-18245.52,-18249.844,-18236.242,-18220.436,-18209.818,-18211.443,-18214.469,-18214.826,-18208.953,-18202.326,-18205.787,-18211.074,-18217.043
-18210.72,-18204.979,-18213.63,-18215.562,-18223.766,-18229.816,-18227.412,-18231.873,-18233.055,-18229.7,-18224.498,-18231.41,-18236.514,-18231.016,-18230.236,-18223.227,-18222.555,-18218.717,-18208.63,-18216.283,-18221.877,-18224.945,-18235.703,-18236.102,-18223.531
-18221.834,-18220.836,-18210.227,-18220.633,-18227.73,-18220.338,-18224.07,-18223.734,-18224.135,-18226.924,-18221.973,-18217.592,-18215.88,-18214.887,-18216.082,-18225.32,-18225.781,-18218.064,-18215.23,-18208.113,-18212.818,-18219.082,-18214.734,-18218.672,-18217.873
-18213.184,-18218.814,-18229.123,-18233.15,-18232.3,-18234.355,-18232.287,-18227.744,-18222.832,-18220.824,-18220.977,-18215.086,-18211.65,-18207.81,-18204.438,-18208.957,-18208.152,-18208.447,-18224.607,-18224.074,-18209.195,-18225.564,-18239.105,-18229.43,-18226.877
-18232.33,-18237.873,-18228.922,-18234.277,-18256.393,-18247.887,-18237.428,-18237.26,-18225.914,-18220.84,-18225.31,-18228.412,-18227.662,-18228.137,-18224.346,-18215.807,-18219.553,-18227.13,-18225.443,-18222.482,-18222.479,-18222.363,-18224.094,-18224.16,-18221.57
-18227.244,-18233.812,-18229.834,-18218.531,-18214.936,-18221.535,-18220.664,-18220.094,-18220.078,-18213.72,-18214.193,-18218.105,-18220.324,-18219.91,-18222.086,-18226.412,-18226.783,-18233.604,-18230.754,-18218.094,-18220.766,-18224.87,-18223.072,-18218.266,-18212.273
-18213.666,-18215.285,-18218.922,-18226.04,-18225.729,-18226.73,-18229.908,-18220.824,-18219.67,-18229.945,-18226.799,-18231.143,-18238.766,-18228.504,-18227.074,-18231.52,-18229.03,-18229.404,-18230.777,-18231.947,-18236.518,-18238.334,-18233.684,-18233.104,-18227.457
-18223.023,-18231.713,-18230.236,-18226.725,-18225.904,-18221.715,-18223.977,-18229.594,-18235.357,-18230.916,-18228.197,-18234.162,-18236.219,-18233.377,-18224.016,-18223.777,-18221.186,-18216.91,-18225.592,-18222.34,-18220.73,-18224.691,-18224.361,-18229.45,-18230.926
-18233.738,-18236.604,-18234.004,-18231.656,-18238.736,-18249.414,-18244.154,-18237.475,-18232.812,-18229.729,-18231.773,-18233.01,-18244.764,-18246.523,-18232.656,-18223.418,-18223.357,-18234.734,-18236.416,-18229.69,-18227.701,-18232.713,-18242.19,-18240.092,-18236.43
-18233.576,-18234.955,-18239.066,-18224.922,-18213.791,-18211.752,-18213.07,-18221.465,-18218.463,-18215.506,-18224.7,-18229.21,-18224.344,-18221.564,-18228.502,-18236.22,-18235.998,-18232.209,-18230.34,-18229.727,-18230.217,-18227.596,-18225.64,-18227.646,-18222.326
-18219.188,-18224.152,-18226.752,-18230.307,-18234.555,-18234.027,-18234.094,-18240.178,-18240.81,-18232.967,-18230.102,-18229.21,-18222.812,-18215.418,-18214.44,-18221.828,-18228.963,-18230.256,-18231.11,-18233.992,-18236.672,-18237.434,-18234.145,-18230.35,-18225.787
-18219.299,-18217.82,-18218.02,-18219.291,-18223.475,-18223.268,-18220.156,-18220.633,-18222.275,-18217.445,-18219.229,-18227.252,-18221.219,-18214.611,-18214.25,-18215.36,-18216.967,-18213.158,-18215.262,-18222.055,-18223.123,-18226.299,-18230.258,-18226.879,-18226.201
-18229.793,-18230.496,-18231.857,-18227.0,-18228.121,-18238.11,-18227.125,-18213.701,-18216.375,-18219.31,-18222.426,-18218.057,-18213.938,-18224.717,-18229.336,-18225.67,-18225.383,-18222.252,-18223.666,-18230.756,-18231.098,-18233.209,-18232.27,-18224.096,-18228.787
-18228.354,-18221.658,-18230.031,-18231.48,-18227.682,-18228.875,-18226.143,-18228.297,-18235.473,-18231.805,-18224.904,-18230.895,-18232.697,-18230.83,-18235.42,-18235.615,-18234.467,-18230.605,-18226.188,-18221.156,-18217.887,-18223.7,-18229.553,-18237.264,-18230.17
-18213.867,-18218.785,-18222.299,-18217.453,-18219.424,-18220.947,-18221.732,-18228.062,-18231.717,-18225.666,-18221.732,-18224.02,-18220.748,-18206.818,-18205.697,-18221.164,-18227.182,-18228.775,-18226.943,-18225.61,-18225.863,-18218.363,-18220.93,-18218.912,-18212.508
-18218.338,-18217.92,-18219.314,-18222.312,-18222.97,-18229.25,-18236.686,-18240.768,-18232.203,-18228.018,-18234.967,-18236.553,-18236.719,-18234.553,-18232.969,-18232.951,-18228.48,-18226.574,-18223.242,-18217.68,-18217.893,-18217.486,-18218.457,-18223.021,-18223.793
-18223.416,-18220.041,-18215.56,-18215.748,-18219.697,-18228.95,-18234.31,-18233.926,-18230.066,-18222.178,-18222.832,-18222.746,-18216.637,-18217.246,-18214.9,-18211.797,-18214.713,-18214.023,-18215.262,-18222.936,-18228.293,-18225.318,-18218.682,-18216.328,-18218.629
-18219.98,-18216.898,-18216.379,-18214.799,-18212.576,-18214.49,-18211.098,-18212.414,-18215.887,-18211.178,-18207.111,-18207.678,-18217.543,-18225.236,-18227.342,-18231.695,-18229.422,-18217.648,-18209.19,-18214.838,-18219.227,-18223.178,-18230.658,-18224.373,-18215.932
-18209.795,-18202.69,-18205.705,-18215.574,-18221.6,-18222.26,-18225.824,-18230.463,-18231.328,-18228.043,-18226.854,-18230.803,-18225.412,-18220.326,-18224.793,-18224.242,-18221.877,-18223.314,-18229.008,-18236.64,-18235.729,-18226.932,-18219.586,-18219.068,-18219.387
-18213.691,-18207.81,-18205.662,-18208.182,-18208.984,-18205.744,-18210.24,-18209.66,-18203.113,-18213.285,-18220.63,-18217.633,-18223.195,-18227.043,-18228.21,-18226.887,-18218.848,-18217.88,-18221.338,-18222.844,-18221.55,-18218.959,-18218.023,-18214.285,-18215.95
-18221.152,-18217.984,-18213.768,-18216.664,-18222.67,-18223.404,-18219.105,-18216.22,-18216.457,-18216.975,-18218.357,-18224.254,-18231.41,-18235.39,-18232.846,-18224.309,-18219.79,-18216.715,-18212.553,-18216.434,-18219.406,-18217.785,-18214.146,-18207.758,-18209.068
-18211.01,-18209.295,-18210.89,-18209.598,-18209.537,-18213.924,-18215.432,-18215.566,-18215.885,-18216.518,-18217.738,-18216.91,-18215.342,-18215.285,-18218.713,-18220.83,-18216.709,-18213.559,-18214.95,-18216.547,-18217.04,-18221.533,-18221.166,-18214.24,-18215.596
-18215.643,-18217.953,-18225.838,-18225.09,-18224.643,-18223.182,-18220.656,-18220.127,-18219.404,-18220.912,-18220.492,-18225.02,-18217.799,-18202.762,-18206.484,-18205.91,-18199.44,-18197.559,-18198.6,-18207.742,-18214.66,-18209.463,-18198.184,-18201.523,-18207.725
-18202.918,-18205.26,-18209.508,-18211.53,-18214.486,-18217.498,-18220.377,-18216.777,-18214.172,-18221.035,-18232.367,-18230.018,-18217.479,-18215.05,-18213.297,-18209.855,-18207.777,-18213.24,-18228.967,-18227.773,-18219.066,-18223.562,-18226.674,-18221.71,-18218.33
-18223.697,-18224.502,-18217.621,-18210.678,-18203.861,-18205.979,-18211.61,-18211.664,-18209.209,-18208.48,-18209.592,-18208.209,-18208.72,-18207.035,-18203.535,-18207.758,-18213.479,-18215.883,-18211.82,-18208.533,-18210.352,-18210.527,-18214.02,-18213.422,-18212.303
-18218.37,-18216.693,-18215.637,-18214.678,-18202.018,-18200.26,-18208.89,-18208.559,-18208.598,-18206.97,-18198.494,-18195.592,-18198.316,-18199.332,-18203.578,-18220.92,-18225.135,-18201.148,-18191.822,-18202.67,-18207.69,-18206.44,-18203.785,-18205.447,-18212.285
-18217.648,-18210.383,-18205.902,-18216.361,-18217.42,-18214.424,-18216.416,-18213.475,-18213.018,-18217.84,-18219.283,-18215.615,-18214.91,-18214.494,-18214.58,-18217.734,-18209.643,-18198.506,-18201.346,-18212.555,-18217.033,-18214.77,-18221.658,-18224.676,-18219.146
-18220.256,-18216.764,-18208.033,-18202.889,-18205.986,-18213.004,-18212.045,-18210.191,-18207.297,-18208.365,-18214.367,-18211.516,-18208.656,-18204.96,-18201.234,-18204.309,-18207.031,-18212.973,-18218.094,-18218.479,-18216.996,-18217.354,-18225.947,-18229.086,-18225.328
-18222.434,-18214.682,-18215.465,-18225.51,-18227.26,-18230.004,-18235.818,-18233.125,-18228.54,-18227.742,-18225.826,-18215.889,-18210.074,-18217.49,-18217.363,-18208.65,-18206.654,-18211.025,-18210.975,-18210.408,-18216.764,-18213.443,-18210.32,-18213.934,-18211.318
-18211.162,-18208.934,-18207.73,-18208.023,-18205.059,-18205.879,-18202.459,-18203.055,-18201.514,-18194.08,-18199.682,-18203.348,-18204.87,-18208.938,-18205.121,-18203.684,-18206.668,-18205.537,-18200.445,-18202.67,-18210.76,-18208.07,-18203.027,-18203.932,-18200.727
-18196.762,-18202.572,-18215.21,-18215.934,-18205.455,-18203.945,-18208.654,-18214.482,-18222.69,-18231.004,-18236.93,-18232.734,-18221.43,-18212.908,-18215.645,-18222.334,-18215.63,-18208.69,-18213.086,-18217.0,-18215.89,-18214.963,-18216.756,-18217.406,-18215.705
-18208.902,-18201.473,-18202.414,-18202.338,-18198.81,-18198.844,-18200.229,-18202.547,-18204.812,-18205.06,-18204.3,-18204.695,-18208.148,-18210.066,-18208.867,-18209.842,-18207.926,-18202.582,-18201.734,-18197.764,-18196.008,-18202.922,-18205.38,-18209.604,-18212.166
-18208.125,-18210.38,-18209.332,-18206.262,-18212.498,-18221.213,-18226.865,-18230.105,-18233.146,-18229.422,-18219.1,-18211.426,-18209.06,-18208.52,-18203.922,-18201.285,-18202.428,-18206.453,-18210.658,-18205.531,-18202.727,-18201.514,-18197.072,-18199.88,-18203.293
-18207.43,-18205.71,-18196.52,-18198.992,-18205.242,-18206.914,-18209.19,-18213.33,-18217.879,-18215.217,-18209.012,-18207.963,-18208.744,-18207.477,-18205.783,-18205.916,-18208.658,-18208.908,-18206.277,-18208.348,-18215.398,-18224.64,-18226.934,-18223.611,-18227.617
-18226.03,-18219.629,-18222.754,-18222.889,-18217.762,-18212.07,-18209.246,-18210.316,-18207.41,-18204.709,-18202.035,-18201.541,-18202.447,-18198.713,-18198.13,-18197.746,-18197.375,-18197.95,-18199.127,-18205.162,-18211.79,-18217.441,-18213.928,-18207.564,-18203.053
-18194.04,-18195.59,-18199.861,-18198.666,-18200.662,-18201.277,-18202.041,-18204.4,-18206.123,-18204.26,-18204.035,-18204.494,-18197.94,-18198.17,-18204.938,-18205.363,-18202.576,-18206.885,-18214.902,-18212.871,-18206.816,-18204.63,-18205.223,-18203.385,-18200.604
-18205.688,-18207.273,-18200.676,-18192.807,-18188.953,-18190.479,-18186.871,-18187.273,-18192.557,-18189.674,-18191.447,-18198.281,-18199.096,-18195.516,-18194.363,-18198.254,-18200.154,-18200.395,-18198.924,-18199.256,-18203.457,-18199.32,-18195.818,-18200.035,-18204.268
-18212.691,-18216.162,-18210.938,-18208.057,-18205.848,-18204.158,-18198.734,-18192.7,-18193.242,-18189.656,-18187.352,-18190.904,-18191.697,-18192.225,-18193.547,-18192.684,-18190.809,-18195.678,-18198.592,-18196.36,-18199.096,-18193.006,-18187.291,-18189.547,-18186.975
-18190.637,-18194.79,-18196.63,-18204.43,-18210.291,-18210.465,-18206.238,-18204.098,-18206.227,-18214.314,-18217.068,-18207.266,-18201.502,-18198.162,-18201.617,-18208.727,-18203.64,-18198.633,-18197.605,-18201.219,-18205.408,-18201.465,-18207.184,-18220.326,-18217.648
-18205.643,-18201.973,-18203.506,-18201.72,-18199.379,-18197.918,-18198.87,-18203.355,-18204.074,-18205.549,-18211.1,-18209.207,-18205.574,-18203.35,-18201.451,-18207.898,-18207.44,-18200.99,-18202.562,-18199.518,-18194.072,-18199.562,-18211.04,-18208.592,-18195.617
-18198.174,-18208.326,-18206.355,-18198.04,-18200.396,-18210.723,-18212.385,-18207.846,-18204.45,-18204.275,-18203.81,-18203.41,-18209.035,-18207.152,-18201.557,-18207.303,-18203.018,-18192.873,-18199.121,-18203.354,-18198.018,-18192.168,-18186.559,-18180.416,-18180.879
-18193.734,-18196.266,-18194.164,-18201.158,-18198.768,-18193.34,-18186.055,-18185.02,-18200.027,-18203.54,-18195.072,-18191.693,-18195.81,-18199.912,-18201.154,-18204.633,-18203.305,-18205.54,-18207.748,-18197.105,-18194.047,-18196.25,-18192.764,-18190.678,-18188.67
-18189.148,-18191.135,-18195.105,-18199.13,-18198.783,-18195.934,-18187.297,-18191.59,-18210.523,-18213.002,-18205.656,-18201.836,-18192.367,-18184.3,-18186.584,-18188.395,-18182.844,-18178.52,-18182.557,-18185.812,-18183.568,-18187.445,-18192.867,-18192.8,-18195.125
-18196.912,-18193.82,-18193.068,-18198.207,-18201.553,-18199.65,-18195.555,-18188.385,-18183.547,-18187.857,-18194.156,-18191.834,-18187.244,-18191.84,-18196.898,-18191.174,-18188.21,-18193.918,-18190.783,-18183.09,-18175.12,-18169.291,-18181.62,-18194.514,-18196.3
-18193.408,-18185.152,-18180.41,-18181.463,-18190.113,-18200.094,-18199.662,-18196.086,-18198.518,-18201.578,-18194.08,-18183.969,-18183.514,-18183.037,-18174.957,-18167.742,-18165.0,-18168.99,-18176.861,-18179.047,-18178.906,-18174.328,-18170.625,-18176.137,-18181.984
-18189.168,-18189.322,-18181.73,-18185.836,-18186.057,-18173.742,-18175.21,-18184.832,-18189.6,-18192.041,-18183.807,-18177.57,-18181.852,-18183.771,-18182.727,-18184.479,-18186.695,-18181.584,-18184.01,-18192.24,-18186.105,-18178.072,-18173.3,-18170.576,-18171.787
-18172.564,-18175.08,-18178.635,-18182.89,-18182.521,-18181.22,-18189.805,-18195.393,-18190.492,-18184.314,-18180.518,-18179.37,-18182.191,-18189.932,-18196.982,-18197.67,-18196.488,-18196.078,-18194.559,-18194.436,-18197.666,-18199.805,-18198.21,-18196.78,-18196.094
-18199.453,-18206.459,-18205.5,-18200.07,-18194.068,-18185.004,-18180.58,-18179.582,-18180.729,-18185.621,-18188.814,-18186.168,-18178.809,-18176.541,-18178.512,-18179.387,-18180.643,-18183.037,-18187.812,-18186.832,-18183.246,-18184.146,-18185.975,-18190.166,-18190.053
-18184.938,-18180.955,-18180.723,-18186.7,-18189.197,-18186.771,-18186.67,-18186.15,-18186.035,-18190.191,-18193.713,-18191.957,-18190.254,-18190.707,-18189.488,-18189.227,-18196.346,-18206.752,-18204.037,-18198.865,-18207.285,-18206.281,-18196.555,-18192.9,-18190.668
-18196.049,-18196.447,-18186.3,-18182.824,-18184.271,-18188.633,-18192.936,-18193.908,-18193.215,-18187.49,-18184.238,-18187.383,-18188.365,-18188.021,-18189.066,-18192.76,-18199.855,-18201.951,-18199.107,-18195.57,-18194.34,-18197.379,-18194.732,-18192.525,-18194.068
-18191.502,-18192.582,-18194.021,-18191.055,-18181.094,-18170.326,-18181.385,-18197.684,-18196.5,-18196.713,-18199.54,-18194.389,-18191.885,-18189.44,-18189.768,-18194.338,-18188.139,-18185.283,-18192.627,-18193.922,-18192.195,-18195.139,-18198.475,-18199.676,-18199.615
-18197.488,-18196.49,-18198.053,-18199.69,-18196.338,-18191.664,-18190.994,-18190.201,-18193.395,-18197.002,-18200.2,-18203.168,-18198.113,-18197.344,-18198.045,-18195.484,-18197.125,-18195.377,-18196.35,-18196.574,-18189.35,-18193.03,-18202.783,-18199.22,-18189.895
-18189.564,-18192.092,-18194.117,-18198.42,-18198.482,-18196.014,-18192.426,-18191.52,-18192.201,-18188.611,-18190.04,-18191.75,-18194.654,-18196.57,-18188.604,-18188.23,-18190.117,-18192.666,-18198.21,-18193.877,-18193.135,-18196.48,-18200.068,-18202.414,-18198.676
-18197.502,-18197.867,-18198.824,-18194.781,-18191.512,-18196.33,-18199.1,-18205.617,-18204.66,-18190.957,-18185.82,-18186.678,-18187.926,-18187.027,-18186.162,-18193.578,-18195.346,-18193.377,-18196.725,-18195.152,-18197.898,-18201.344,-18199.215,-18201.78,-18197.5
-18194.023,-18199.719,-18201.865,-18200.57,-18196.76,-18194.38,-18196.455,-18200.436,-18199.541,-18201.25,-18206.48,-18197.133,-18190.246,-18190.854,-18188.043,-18188.363,-18186.162,-18184.238,-18190.627,-18197.33,-18190.691,-18185.617,-18186.408,-18180.977,-18189.316
-18191.93,-18184.479,-18188.977,-18181.582,-18174.777,-18175.066,-18174.457,-18181.838,-18183.297,-18184.371,-18181.799,-18179.191,-18185.707,-18185.127,-18190.13,-18188.896,-18180.865,-18186.627,-18183.232,-18178.977,-18180.445,-18179.318,-18180.57,-18177.11,-18180.389
-18188.426,-18192.096,-18196.096,-18194.094,-18190.902,-18186.314,-18181.01,-18182.164,-18176.371,-18171.207,-18177.545,-18176.854,-18172.363,-18169.812,-18168.867,-18174.99,-18175.756,-18176.371,-18178.383,-18175.85,-18185.105,-18192.541,-18182.725,-18173.635,-18174.852
-18181.215,-18184.809,-18183.422,-18180.908,-18176.328,-18172.45,-18175.445,-18174.803,-18166.252,-18164.85,-18167.248,-18168.717,-18176.758,-18174.191,-18163.572,-18164.615,-18163.238,-18163.004,-18172.055,-18180.01,-18180.57,-18173.191,-18175.625,-18181.342,-18180.58
-18185.38,-18186.008,-18186.014,-18188.264,-18181.377,-18175.107,-18171.191,-18168.45,-18173.29,-18177.475,-18174.082,-18173.82,-18172.281,-18162.568,-18166.402,-18174.502,-18171.506,-18170.9,-18171.441,-18173.916,-18177.467,-18184.432,-18190.99,-18184.938,-18178.83
-18171.861,-18164.629,-18166.742,-18171.475,-18175.133,-18174.924,-18172.678,-18170.098,-18171.748,-18179.348,-18179.879,-18173.193,-18168.705,-18169.121,-18168.762,-18164.549,-18166.125,-18166.87,-18161.018,-18166.555,-18170.22,-18161.682,-18164.34,-18164.502,-18156.318
-18162.547,-18164.807,-18153.479,-18156.785,-18167.334,-18162.596,-18155.887,-18155.637,-18163.482,-18174.201,-18171.9,-18170.348,-18173.93,-18175.357,-18180.697,-18177.666,-18167.68,-18170.76,-18180.28,-18179.414,-18177.205,-18176.76,-18171.588,-18175.762,-18174.326
-18161.51,-18158.809,-18158.305,-18172.479,-18190.623,-18178.602,-18166.797,-18171.455,-18174.246,-18175.396,-18175.414,-18175.822,-18178.217,-18177.408,-18173.309,-18170.621,-18169.246,-18165.639,-18164.055,-18167.17,-18169.043,-18167.947,-18169.28,-18172.645,-18173.807
-18174.39,-18170.791,-18170.402,-18173.607,-18167.377,-18162.518,-18160.547,-18163.537,-18166.54,-18159.754,-18165.678,-18171.387,-18164.332,-18165.305,-18168.312,-18163.945,-18154.8,-18151.006,-18156.648,-18159.67,-18160.406,-18172.738,-18186.533,-18181.977,-18172.25
-18169.752,-18172.246,-18175.299,-18173.953,-18172.758,-18169.549,-18169.688,-18172.072,-18166.137,-18166.639,-18172.457,-18171.41,-18167.521,-18164.918,-18168.191,-18168.992,-18164.66,-18167.916,-18170.064,-18164.943,-18166.963,-18171.748,-18170.434,-18169.904,-18170.484
-18170.824,-18169.19,-18162.781,-18162.938,-18170.773,-18172.068,-18167.86,-18163.47,-18160.37,-18159.617,-18157.695,-18157.492,-18161.42,-18161.895,-18156.691,-18154.113,-18154.77,-18153.748,-18156.564,-18164.09,-18169.29,-18172.805,-18174.09,-18171.828,-18173.838
-18175.516,-18169.115,-18166.104,-18165.377,-18161.88,-18163.506,-18164.53,-18161.842,-18160.182,-18160.162,-18163.643,-18163.395,-18159.764,-18161.658,-18165.16,-18168.588,-18170.988,-18169.164,-18167.826,-18167.453,-18167.035,-18167.672,-18165.088,-18163.605,-18165.574
-18163.89,-18166.285,-18172.656,-18172.023,-18174.406,-18179.67,-18178.623,-18181.605,-18185.312,-18182.877,-18182.18,-18179.873,-18173.496,-18169.783,-18175.605,-18186.424,-18186.69,-18179.812,-18176.518,-18175.555,-18176.533,-18181.37,-18183.455,-18172.404,-18163.451
-18170.771,-18175.77,-18173.271,-18174.55,-18177.592,-18175.672,-18168.812,-18165.379,-18167.512,-18171.715,-18174.77,-18173.066,-18174.016,-18178.377,-18179.166,-18179.262,-18176.088,-18173.22,-18175.992,-18176.453,-18177.285,-18175.004,-18169.533,-18172.307,-18170.584
-18168.414,-18172.627,-18169.922,-18169.084,-18163.46,-18154.459,-18163.51,-18174.602,-18177.021,-18179.004,-18180.707,-18184.582,-18188.865,-18178.553,-18164.766,-18166.947,-18168.852,-18171.885,-18173.814,-18166.129,-18164.568,-18162.105,-18158.754,-18164.72,-18171.883
-18169.705,-18162.697,-18161.406,-18160.436,-18158.422,-18154.158,-18157.191,-18165.262,-18159.676,-18159.268,-18159.766,-18153.457,-18159.416,-18162.932,-18160.197,-18157.977,-18157.754,-18164.688,-18170.826,-18180.13,-18186.213,-18183.342,-18182.371,-18180.059,-18180.287
-18181.385,-18177.656,-18177.23,-18180.854,-18184.004,-18185.861,-18186.537,-18183.236,-18173.955,-18162.977,-18164.572,-18172.49,-18169.312,-18171.256,-18185.459,-18191.576,-18181.545,-18172.025,-18171.701,-18168.531,-18163.537,-18164.104,-18171.162,-18174.066,-18166.172
-18164.064,-18168.006,-18169.215,-18172.264,-18172.979,-18171.898,-18169.186,-18158.838,-18156.604,-18164.023,-18164.549,-18163.455,-18160.625,-18154.38,-18154.092,-18157.684,-18164.416,-18168.611,-18164.51,-18169.088,-18173.262,-18166.562,-18169.178,-18167.979,-18159.84
-18155.363,-18153.17,-18167.297,-18176.996,-18172.305,-18166.55,-18154.574,-18149.598,-18147.994,-18143.836,-18149.533,-18158.84,-18164.05,-18159.201,-18149.719,-18143.473,-18142.883,-18157.66,-18168.666,-18162.482,-18156.053,-18154.041,-18151.02,-18147.934,-18158.385
-18161.89,-18152.238,-18163.385,-18166.205,-18153.223,-18158.285,-18166.008,-18166.094,-18168.168,-18171.81,-18169.941,-18174.19,-18183.06,-18178.44,-18172.352,-18169.598,-18171.004,-18173.072,-18175.111,-18180.625,-18174.723,-18167.574,-18159.39,-18154.123,-18155.498
-18142.27,-18139.887,-18144.771,-18142.637,-18152.834,-18152.074,-18142.854,-18143.28,-18143.127,-18144.406,-18147.473,-18154.863,-18159.668,-18157.174,-18156.223,-18146.111,-18137.812,-18141.68,-18143.412,-18150.336,-18153.02,-18146.064,-18147.488,-18150.54,-18149.434
-18152.225,-18154.088,-18147.936,-18150.016,-18153.408,-18143.031,-18141.033,-18143.908,-18143.96,-18142.895,-18138.389,-18146.426,-18155.361,-18155.033,-18158.514,-18159.986,-18157.623,-18157.568,-18154.62,-18149.34,-18149.158,-18149.367,-18150.186,-18151.748,-18145.787
-18144.336,-18151.023,-18148.37,-18141.91,-18145.615,-18150.408,-18151.193,-18156.555,-18158.781,-18151.0,-18148.527,-18153.889,-18155.275,-18154.344,-18153.928,-18154.527,-18156.441,-18154.832,-18157.406,-18164.957,-18158.895,-18143.188,-18139.064,-18150.264,-18158.176
-18151.115,-18146.281,-18149.55,-18149.588,-18151.014,-18158.592,-18165.03,-18158.826,-18142.023,-18136.182,-18142.74,-18148.1,-18153.072,-18161.404,-18170.484,-18167.023,-18160.969,-18166.006,-18168.355,-18168.377,-18161.373,-18157.707,-18165.535,-18163.217,-18161.941
-18162.498,-18160.666,-18164.059,-18167.232,-18170.768,-18168.72,-18165.727,-18161.797,-18161.244,-18169.621,-18169.334,-18167.654,-18166.291,-18165.611,-18170.842,-18170.223,-18170.066,-18169.68,-18171.6,-18179.146,-18178.658,-18174.535,-18171.299,-18168.723,-18169.719
-18170.445,-18161.58,-18153.338,-18159.727,-18160.844,-18156.756,-18157.756,-18154.44,-18153.23,-18156.506,-18161.17,-18162.125,-18153.535,-18149.982,-18156.65,-18158.07,-18156.512,-18164.53,-18166.846,-18159.4,-18160.799,-18167.932,-18171.475,-18167.705,-18163.479
-18164.607,-18164.994,-18163.732,-18164.62,-18168.234,-18161.943,-18156.7,-18163.666,-18163.238,-18159.781,-18161.37,-18167.88,-18173.63,-18168.275,-18162.3,-18160.512,-18156.951,-18151.02,-18154.908,-18164.92,-18161.857,-18158.758,-18162.195,-18167.107,-18175.383
-18173.686,-18164.627,-18157.791,-18152.805,-18156.914,-18164.623,-18167.312,-18169.805,-18172.785,-18169.598,-18167.475,-18171.777,-18168.486,-18165.809,-18165.85,-18160.271,-18156.508,-18146.283,-18144.432,-18149.27,-18142.422,-18149.664,-18157.389,-18153.771,-18155.611
-18155.018,-18155.053,-18153.783,-18151.383,-18148.041,-18144.021,-18148.26,-18152.154,-18156.852,-18157.285,-18158.988,-18165.695,-18158.227,-18152.557,-18152.28,-18155.031,-18163.262,-18166.916,-18169.2,-18159.066,-18149.729,-18152.373,-18149.822,-18146.168,-18145.969
-18155.363,-18162.076,-18160.953,-18163.318,-18160.32,-18161.037,-18158.799,-18152.117,-18159.387,-18162.568,-18157.617,-18153.787,-18154.295,-18158.938,-18155.725,-18148.67,-18148.521,-18154.7,-18152.729,-18148.092,-18152.152,-18149.88,-18149.783,-18152.49,-18149.412
-18152.209,-18157.898,-18163.54,-18161.406,-18158.879,-18166.604,-18165.715,-18159.213,-18157.727,-18159.836,-18160.629,-18158.77,-18160.385,-18160.13,-18160.951,-18160.457,-18152.16,-18151.426,-18153.705,-18149.668,-18149.715,-18147.723,-18145.773,-18155.234,-18161.408
-18161.396,-18159.496,-18151.523,-18149.93,-18156.264,-18156.816,-18152.049,-18153.29,-18152.178,-18145.021,-18144.955,-18138.174,-18136.408,-18145.54,-18143.848,-18147.219,-18151.14,-18158.037,-18173.998,-18172.15,-18156.043,-18145.29,-18147.574,-18146.953,-18143.125
-18144.363,-18139.871,-18139.723,-18139.98,-18137.002,-18136.008,-18136.182,-18143.645,-18144.516,-18137.059,-18131.86,-18134.877,-18148.473,-18159.414,-18164.346,-18163.473,-18157.592,-18151.2,-18149.33,-18151.262,-18146.32,-18145.184,-18156.402,-18160.275,-18150.846
-18145.969,-18148.604,-18151.744,-18153.078,-18147.545,-18139.424,-18129.17,-18129.498,-18143.373,-18141.248,-18141.988,-18150.309,-18139.496,-18135.22,-18135.766,-18134.834,-18147.707,-18148.299,-18139.91,-18143.477,-18154.004,-18166.936,-18167.535,-18161.264,-18158.256
-18150.854,-18146.092,-18145.193,-18147.328,-18149.3,-18144.76,-18145.928,-18147.445,-18142.867,-18143.22,-18146.707,-18147.703,-18144.6,-18142.883,-18145.291,-18148.775,-18154.088,-18166.43,-18173.748,-18157.4,-18143.598,-18142.408,-18138.648,-18141.668,-18144.18
-18141.93,-18140.27,-18139.883,-18147.172,-18151.742,-18147.701,-18144.926,-18143.867,-18140.928,-18141.875,-18144.469,-18140.412,-18140.6,-18145.941,-18146.477,-18145.535,-18138.82,-18131.535,-18137.068,-18140.818,-18135.82,-18135.506,-18139.086,-18142.445,-18145.16
-18144.854,-18144.076,-18145.67,-18142.98,-18134.941,-18134.414,-18135.633,-18131.844,-18131.752,-18131.922,-18131.527,-18130.914,-18131.285,-18136.592,-18140.895,-18142.11,-18139.752,-18138.729,-18140.777,-18141.273,-18143.662,-18143.855,-18143.303,-18147.082,-18146.11
-18141.627,-18140.701,-18140.402,-18140.86,-18136.852,-18125.19,-18122.564,-18130.375,-18134.385,-18133.512,-18133.621,-18135.594,-18135.777,-18140.455,-18147.744,-18145.045,-18140.771,-18145.158,-18144.934,-18140.172,-18145.322,-18147.654,-18145.232,-18145.984,-18145.95
-18148.852,-18144.41,-18136.666,-18140.61,-18145.824,-18145.6,-18145.16,-18144.223,-18136.713,-18133.115,-18137.643,-18141.143,-18141.072,-18135.469,-18134.887,-18136.793,-18134.713,-18136.219,-18136.168,-18135.057,-18136.787,-18140.709,-18147.682,-18151.64,-18149.215
-18144.713,-18141.2,-18135.916,-18128.855,-18124.754,-18126.738,-18135.076,-18140.879,-18144.73,-18154.41,-18156.02,-18150.705,-18146.95,-18142.752,-18144.482,-18141.082,-18143.963,-18149.316,-18138.422,-18145.285,-18150.184,-18139.615,-18137.54,-18131.701,-18133.426
-18135.729,-18131.693,-18131.002,-18128.965,-18133.885,-18141.44,-18146.488,-18144.896,-18144.25,-18145.633,-18136.547,-18134.248,-18135.143,-18133.191,-18137.74,-18142.996,-18148.537,-18153.19,-18157.977,-18159.115,-18153.418,-18151.506,-18153.67,-18151.11,-18144.592
-18144.225,-18146.38,-18144.738,-18144.445,-18146.676,-18152.145,-18152.854,-18145.188,-18141.188,-18143.863,-18144.613,-18135.125,-18126.729,-18126.521,-18126.0,-18133.756,-18142.094,-18136.943,-18133.805,-18134.402,-18132.2,-18130.693,-18131.617,-18136.184,-18136.264
-18135.316,-18137.596,-18134.023,-18135.123,-18133.84,-18121.535,-18126.791,-18134.906,-18125.1,-18127.33,-18136.348,-18141.562,-18149.742,-18143.986,-18138.383,-18139.416,-18136.666,-18140.984,-18140.555,-18139.375,-18141.977,-18137.547,-18137.635,-18143.484,-18144.797
-18133.016,-18124.555,-18124.742,-18119.738,-18124.18,-18132.898,-18141.035,-18151.104,-18149.834,-18147.262,-18145.46,-18140.402,-18141.04,-18140.209,-18132.195,-18123.65,-18120.895,-18129.928,-18141.97,-18143.777,-18145.217,-18145.754,-18140.348,-18142.713,-18141.941
-18139.21,-18147.135,-18146.094,-18139.104,-18136.326,-18132.121,-18127.508,-18124.506,-18125.514,-18134.316,-18147.37,-18143.73,-18131.994,-18130.453,-18135.354,-18147.947,-18150.125,-18141.445,-18134.482,-18126.3,-18127.367,-18134.842,-18137.814,-18140.416,-18144.238
-18138.361,-18131.75,-18137.006,-18139.719,-18139.18,-18141.873,-18144.201,-18143.293,-18147.633,-18152.656,-18146.227,-18147.508,-18145.562,-18134.488,-18140.244,-18143.979,-18138.365,-18139.988,-18148.62,-18154.611,-18151.852,-18145.004,-18138.299,-18146.428,-18156.945
-18156.492,-18153.46,-18138.852,-18136.887,-18148.2,-18144.764,-18145.568,-18149.588,-18142.785,-18134.988,-18128.682,-18124.225,-18131.57,-18139.666,-18132.736,-18125.332,-18123.006,-18126.312,-18131.77,-18131.816,-18136.287,-18139.424,-18137.191,-18140.725,-18148.328
-18149.312,-18146.867,-18151.426,-18161.727,-18170.725,-18158.203,-18134.285,-18130.373,-18134.113,-18134.729,-18133.652,-18130.756,-18136.74,-18143.832,-18145.012,-18149.637,-18152.076,-18148.582,-18146.309,-18142.205,-18136.008,-18134.459,-18138.098,-18139.568,-18137.582
-18143.48,-18151.2,-18149.549,-18149.123,-18152.184,-18149.266,-18144.102,-18144.65,-18145.865,-18145.387,-18143.797,-18138.838,-18139.818,-18147.455,-18152.342,-18148.24,-18141.678,-18147.822,-18151.951,-18144.055,-18140.36,-18142.656,-18145.41,-18142.424,-18133.77
-18130.996,-18133.59,-18135.947,-18139.393,-18141.824,-18141.918,-18143.463,-18145.184,-18145.506,-18146.404,-18142.445,-18138.83,-18138.434,-18134.31,-18137.83,-18140.271,-18140.662,-18144.982,-18136.52,-18137.877,-18141.445,-18131.525,-18135.809,-18143.256,-18147.65
-18151.418,-18150.824,-18144.367,-18134.135,-18137.023,-18140.838,-18146.533,-18154.223,-18152.338,-18150.29,-18143.799,-18147.809,-18153.844,-18146.895,-18142.615,-18134.2,-18134.365,-18139.604,-18141.42,-18148.271,-18143.518,-18139.541,-18139.93,-18137.41,-18140.809
-18137.744,-18133.242,-18131.344,-18128.285,-18132.994,-18133.973,-18136.072,-18148.244,-18145.91,-18135.918,-18138.564,-18139.762,-18142.09,-18150.824,-18148.11,-18140.816,-18137.885,-18136.941,-18145.389,-18149.33,-18140.38,-18132.906,-18134.16,-18142.826,-18149.41
-18152.348,-18151.15,-18142.373,-18133.084,-18133.605,-18143.14,-18145.783,-18145.693,-18145.443,-18136.186,-18138.613,-18147.072,-18140.113,-18144.453,-18163.682,-18168.498,-18165.611,-18160.934,-18152.363,-18148.125,-18143.805,-18144.324,-18146.01,-18143.146,-18144.875
-18147.521,-18151.18,-18147.988,-18140.592,-18138.787,-18133.637,-18130.49,-18131.666,-18134.188,-18133.686,-18132.938,-18141.756,-18147.486,-18145.746,-18146.447,-18148.715,-18146.076,-18146.314,-18146.092,-18139.846,-18145.105,-18148.701,-18151.303,-18158.246,-18146.229
-18136.943,-18138.742,-18138.398,-18142.846,-18146.465,-18146.582,-18142.734,-18136.324,-18136.064,-18143.92,-18145.197,-18139.87,-18146.078,-18150.682,-18153.49,-18157.803,-18147.885,-18145.484,-18148.678,-18134.705,-18132.846,-18148.104,-18155.457,-18161.324,-18155.771
-18138.87,-18135.885,-18139.072,-18141.926,-18139.541,-18135.998,-18144.432,-18146.818,-18144.717,-18148.258,-18148.803,-18149.527,-18151.656,-18147.19,-18138.346,-18135.35,-18135.254,-18138.256,-18145.865,-18148.805,-18139.836,-18131.348,-18140.496,-18143.803,-18140.623
-18141.752,-18137.014,-18144.531,-18149.229,-18144.828,-18148.395,-18147.31,-18148.473,-18157.19,-18170.047,-18168.686,-18151.271,-18147.7,-18151.041,-18155.932,-18156.596,-18150.307,-18151.074,-18146.23,-18140.828,-18145.115,-18148.752,-18149.844,-18147.352,-18139.592
-18132.725,-18138.953,-18151.129,-18155.377,-18156.096,-18156.818,-18150.697,-18136.328,-18130.23,-18137.209,-18142.723,-18143.611,-18146.809,-18151.195,-18151.357,-18152.117,-18157.02,-18156.871,-18150.4,-18151.363,-18155.36,-18151.508,-18156.758,-18165.467,-18156.445
-18152.393,-18154.645,-18148.723,-18153.807,-18158.152,-18151.863,-18150.834,-18158.104,-18172.115,-18172.594,-18162.982,-18162.588,-18160.713,-18155.096,-18152.611,-18156.145,-18158.607,-18156.385,-18154.646,-18150.043,-18145.867,-18141.176,-18145.174,-18161.656,-18162.582
-18153.41,-18150.213,-18151.582,-18157.998,-18154.887,-18153.324,-18162.201,-18160.395,-18155.508,-18154.307,-18151.607,-18153.752,-18159.664,-18161.621,-18160.037,-18160.129,-18155.809,-18154.533,-18158.363,-18153.361,-18149.842,-18145.361,-18140.5,-18145.135,-18149.791
-18155.822,-18159.8,-18160.354,-18157.906,-18149.996,-18147.766,-18150.42,-18157.172,-18166.604,-18166.734,-18156.23,-18146.996,-18146.754,-18148.35,-18151.543,-18157.678,-18160.516,-18157.973,-18155.357,-18159.527,-18158.398,-18154.592,-18161.201,-18159.426,-18155.344
-18159.488,-18153.484,-18153.492,-18162.145,-18160.15,-18160.867,-18160.768,-18155.94,-18159.19,-18162.398,-18167.854,-18176.723,-18172.725,-18163.229,-18159.578,-18164.066,-18177.033,-18177.016,-18167.768,-18166.455,-18161.627,-18162.889,-18170.281,-18165.676,-18155.06
-18151.707,-18156.816,-18155.857,-18158.908,-18166.172,-18158.838,-18157.406,-18164.18,-18165.723,-18168.121,-18169.1,-18170.047,-18171.146,-18171.611,-18176.816,-18177.889,-18171.688,-18170.807,-18170.893,-18164.537,-18163.812,-18169.045,-18176.943,-18192.285,-18196.184
-18186.613,-18184.213,-18181.375,-18173.062,-18165.64,-18165.215,-18171.127,-18165.723,-18157.904,-18156.86,-18153.287,-18156.693,-18158.494,-18155.006,-18157.934,-18157.16,-18156.86,-18162.336,-18169.172,-18171.379,-18165.928,-18169.096,-18170.807,-18163.57,-18164.523
-18163.658,-18159.342,-18159.531,-18164.969,-18174.932,-18172.205,-18167.736,-18172.96,-18167.129,-18158.9,-18157.623,-18154.295,-18156.303,-18168.838,-18181.68,-18175.512,-18158.729,-18153.55,-18150.816,-18152.246,-18156.945,-18154.787,-18155.121,-18152.906,-18152.28
-18155.188,-18156.766,-18165.91,-18165.852,-18160.424,-18163.18,-18161.785,-18163.312,-18166.967,-18167.588,-18168.986,-18168.78,-18172.55,-18171.582,-18162.48,-18157.998,-18158.252,-18157.219,-18149.004,-18146.63,-18151.746,-18157.473,-18162.99,-18156.895,-18160.121
-18166.635,-18157.846,-18155.275,-18151.629,-18152.625,-18161.512,-18161.361,-18166.46,-18175.67,-18172.623,-18158.45,-18155.768,-18162.201,-18154.855,-18153.758,-18158.701,-18153.645,-18154.68,-18160.324,-18161.799,-18158.924,-18156.45,-18164.996,-18172.268,-18168.969
-18167.812,-18166.848,-18158.896,-18150.273,-18149.676,-18157.049,-18165.406,-18167.543,-18162.758,-18161.229,-18157.104,-18153.898,-18162.908,-18160.477,-18156.191,-18160.105,-18150.443,-18150.05,-18162.098,-18163.352,-18159.742,-18157.244,-18162.684,-18167.812,-18160.06
-18155.041,-18160.232,-18161.521,-18161.615,-18171.852,-18176.727,-18173.467,-18172.834,-18171.062,-18175.941,-18180.465,-18173.947,-18168.219,-18168.559,-18174.322,-18173.666,-18169.773,-18172.713,-18168.717,-18164.547,-18166.824,-18166.104,-18165.164,-18168.494,-18172.152
-18168.928,-18170.562,-18174.385,-18167.23,-18163.258,-18160.812,-18158.695,-18157.822,-18153.113,-18157.145,-18153.945,-18141.064,-18144.963,-18155.402,-18157.252,-18154.809,-18161.79,-18169.795,-18165.016,-18163.566,-18162.86,-18162.3,-18169.021,-18168.336,-18163.637
-18162.33,-18161.361,-18160.707,-18158.557,-18158.268,-18161.63,-18171.244,-18177.322,-18167.926,-18167.752,-18173.705,-18167.396,-18167.67,-18170.957,-18171.865,-18168.668,-18163.807,-18171.041,-18170.762,-18163.447,-18161.578,-18163.791,-18166.482,-18161.994,-18167.398
-18172.639,-18166.678,-18163.787,-18158.332,-18154.68,-18154.713,-18159.021,-18163.113,-18160.727,-18162.969,-18162.074,-18159.494,-18161.096,-18160.568,-18161.705,-18164.129,-18167.205,-18165.854,-18163.188,-18169.352,-18173.568,-18165.502,-18158.361,-18163.17,-18168.531
-18173.453,-18176.63,-18171.105,-18167.652,-18170.402,-18173.562,-18174.521,-18178.033,-18173.176,-18160.78,-18165.621,-18171.617,-18173.664,-18177.85,-18166.72,-18153.785,-18151.365,-18156.506,-18163.361,-18163.873,-18162.531,-18158.766,-18155.26,-18156.742,-18160.836
-18161.459,-18155.5,-18152.607,-18151.002,-18145.447,-18143.686,-18147.188,-18151.434,-18150.756,-18148.031,-18149.023,-18148.174,-18145.596,-18143.738,-18141.293,-18139.625,-18141.855,-18146.34,-18146.92,-18147.408,-18145.465,-18145.205,-18152.193,-18151.545,-18150.12
-18150.998,-18151.58,-18158.08,-18155.605,-18152.643,-18154.766,-18150.404,-18154.455,-18165.188,-18169.188,-18164.887,-18159.8,-18157.92,-18154.223,-18156.398,-18156.385,-18155.535,-18159.771,-18155.621,-18157.092,-18160.885,-18156.775,-18155.56,-18155.725,-18158.182
-18159.312,-18157.752,-18153.814,-18150.664,-18158.441,-18166.885,-18164.387,-18157.834,-18157.268,-18154.379,-18152.857,-18162.291,-18161.754,-18156.299,-18157.89,-18157.29,-18152.945,-18147.398,-18151.17,-18157.32,-18159.6,-18157.877,-18151.275,-18155.088,-18157.188
-18154.006,-18158.912,-18160.309,-18156.41,-18153.42,-18154.33,-18155.914,-18157.69,-18162.75,-18163.16,-18161.38,-18160.875,-18159.213,-18154.94,-18150.05,-18148.37,-18144.068,-18140.05,-18139.238,-18140.174,-18144.182,-18143.889,-18142.064,-18147.059,-18153.154
-18156.29,-18160.092,-18160.3,-18157.582,-18156.314,-18150.54,-18146.451,-18148.936,-18147.459,-18143.371,-18146.695,-18144.59,-18134.148,-18139.967,-18150.938,-18154.922,-18158.258,-18149.895,-18145.135,-18148.89,-18140.441,-18135.412,-18141.016,-18139.684,-18133.13
-18131.156,-18132.432,-18136.68,-18145.709,-18143.701,-18136.746,-18144.23,-18146.047,-18142.834,-18148.262,-18152.924,-18162.867,-18168.818,-18160.293,-18155.703,-18155.566,-18154.475,-18157.104,-18156.537,-18153.82,-18158.203,-18159.844,-18156.701,-18157.666,-18156.973
-18156.99,-18157.764,-18157.02,-18163.47,-18163.977,-18154.291,-18151.957,-18149.604,-18144.775,-18148.42,-18144.613,-18137.117,-18143.447,-18145.477,-18141.762,-18140.152,-18140.709,-18146.484,-18144.97,-18143.324,-18147.52,-18146.096,-18143.463,-18140.314,-18136.5
-18140.566,-18149.162,-18143.822,-18134.873,-18141.346,-18144.229,-18144.74,-18148.404,-18145.406,-18147.443,-18146.914,-18138.383,-18136.271,-18136.53,-18139.408,-18144.885,-18138.924,-18128.889,-18129.178,-18131.047,-18134.586,-18139.137,-18133.797,-18131.598,-18137.217
-18139.857,-18142.473,-18147.748,-18153.52,-18156.248,-18156.113,-18155.332,-18150.842,-18147.229,-18148.977,-18148.045,-18149.549,-18155.295,-18153.008,-18152.332,-18150.896,-18146.064,-18150.799,-18150.69,-18145.484,-18142.531,-18141.844,-18145.012,-18141.494,-18141.863
-18145.285,-18141.104,-18140.26,-18144.38,-18151.717,-18153.67,-18146.12,-18137.96,-18134.256,-18135.977,-18139.594,-18144.648,-18140.889,-18135.586,-18143.068,-18141.865,-18138.18,-18142.12,-18138.81,-18139.19,-18140.42,-18137.107,-18142.75,-18149.408,-18155.723
-18161.1,-18151.408,-18142.143,-18144.23,-18143.16,-18138.709,-18136.285,-18139.395,-18145.027,-18143.832,-18140.305,-18141.404,-18143.268,-18137.709,-18131.07,-18134.438,-18136.875,-18141.428,-18151.264,-18147.61,-18143.715,-18141.785,-18135.719,-18142.098,-18145.604
-18145.178,-18148.72,-18144.39,-18138.494,-18136.607,-18137.861,-18138.459,-18142.215,-18145.07,-18139.758,-18141.895,-18146.33,-18146.28,-18150.15,-18151.896,-18145.557,-18137.785,-18139.223,-18142.398,-18144.098,-18152.342,-18152.701,-18144.527,-18144.346,-18143.932
-18141.941,-18146.445,-18149.549,-18150.955,-18150.412,-18150.527,-18157.152,-18152.816,-18139.605,-18135.54,-18131.975,-18127.008,-18132.318,-18141.473,-18144.662,-18146.137,-18146.156,-18150.254,-18154.047,-18144.602,-18137.29,-18136.885,-18136.398,-18134.922,-18135.674
-18138.414,-18135.076,-18141.832,-18148.852,-18144.33,-18148.555,-18149.486,-18144.695,-18142.652,-18141.838,-18143.545,-18144.58,-18147.893,-18147.475,-18149.191,-18154.707,-18155.318,-18158.852,-18155.818,-18150.88,-18156.256,-18156.959,-18151.473,-18152.426,-18159.256
-18160.518,-18158.76,-18156.406,-18153.408,-18152.852,-18146.398,-18146.02,-18148.502,-18143.898,-18147.85,-18142.877,-18135.572,-18136.283,-18126.945,-18127.594,-18132.895,-18131.822,-18135.195,-18139.025,-18142.336,-18139.271,-18135.74,-18138.094,-18142.99,-18143.148
-18136.842,-18139.238,-18143.516,-18145.08,-18148.352,-18149.945,-18153.537,-18150.75,-18144.736,-18146.475,-18142.803,-18136.93,-18142.848,-18144.596,-18136.16,-18135.328,-18142.176,-18147.535,-18145.844,-18139.082,-18140.002,-18143.334,-18136.467,-18132.809,-18138.023
-18137.23,-18135.064,-18134.65,-18131.393,-18132.115,-18129.3,-18123.686,-18129.682,-18138.93,-18142.316,-18143.9,-18146.367,-18148.428,-18145.63,-18139.164,-18133.566,-18134.41,-18141.312,-18143.451,-18147.137,-18152.031,-18149.146,-18148.447,-18146.352,-18145.58
-18151.406,-18153.855,-18157.002,-18164.463,-18172.29,-18168.955,-18160.516,-18157.445,-18150.436,-18148.371,-18147.518,-18141.686,-18138.818,-18137.088,-18140.877,-18144.154,-18146.969,-18143.354,-18126.615,-18119.363,-18122.834,-18131.58,-18138.92,-18137.27,-18138.928
-18143.506,-18144.182,-18139.531,-18136.518,-18137.492,-18137.275,-18136.443,-18129.88,-18128.57,-18135.678,-18136.617,-18138.945,-18143.354,-18140.152,-18133.621,-18130.754,-18132.062,-18140.818,-18146.033,-18136.377,-18136.83,-18141.865,-18138.145,-18140.1,-18134.955
-18132.537,-18143.846,-18146.533,-18144.867,-18150.932,-18152.283,-18142.707,-18144.857,-18153.818,-18144.459,-18133.053,-18130.65,-18133.67,-18139.945,-18137.814,-18136.875,-18138.27,-18134.596,-18137.664,-18139.176,-18142.006,-18153.49,-18153.717,-18146.79,-18148.402
-18150.988,-18146.896,-18147.6,-18148.086,-18140.9,-18136.408,-18129.766,-18133.168,-18142.844,-18143.893,-18152.135,-18154.826,-18150.42,-18151.137,-18147.936,-18142.818,-18141.346,-18142.92,-18142.178,-18148.83,-18156.145,-18151.744,-18152.426,-18150.326,-18144.508
-18141.928,-18138.227,-18144.434,-18146.88,-18139.016,-18133.707,-18130.088,-18135.375,-18140.893,-18139.447,-18142.596,-18143.818,-18140.986,-18141.549,-18146.969,-18147.504,-18144.076,-18151.943,-18154.045,-18152.277,-18155.117,-18141.889,-18136.805,-18146.033,-18140.19
-18132.674,-18133.7,-18132.074,-18132.68,-18137.553,-18137.482,-18140.32,-18144.38,-18141.4,-18139.738,-18139.316,-18143.402,-18143.5,-18137.05,-18141.967,-18146.447,-18144.482,-18145.729,-18149.281,-18152.303,-18148.973,-18146.076,-18153.064,-18155.771,-18147.463
-18145.873,-18146.463,-18143.242,-18146.033,-18145.314,-18144.383,-18149.35,-18151.455,-18150.984,-18148.082,-18146.146,-18148.764,-18154.293,-18158.34,-18160.504,-18158.012,-18150.137,-18155.979,-18163.139,-18152.8,-18147.258,-18152.129,-18153.516,-18151.508,-18156.953
-18159.303,-18153.143,-18157.635,-18163.158,-18163.893,-18162.803,-18160.52,-18167.64,-18168.863,-18165.492,-18163.365,-18150.32,-18144.34,-18144.02,-18139.412,-18143.164,-18149.398,-18152.598,-18151.771,-18148.074,-18147.617,-18149.156,-18147.963,-18141.49,-18135.656
-18128.855,-18130.172,-18140.18,-18136.76,-18134.426,-18138.94,-18134.104,-18125.168,-18125.38,-18136.148,-18142.422,-18147.686,-18147.502,-18142.23,-18150.64,-18153.238,-18155.775,-18167.818,-18163.996,-18156.518,-18152.053,-18143.906,-18148.205,-18155.588,-18153.393
-18160.967,-18165.717,-18152.625,-18149.62,-18150.537,-18147.389,-18153.227,-18153.39,-18149.59,-18151.97,-18150.234,-18142.54,-18141.213,-18142.246,-18139.39,-18145.754,-18146.238,-18141.361,-18154.146,-18160.527,-18154.514,-18156.709,-18162.352,-18160.79,-18157.895
-18162.121,-18160.4,-18155.191,-18154.338,-18149.385,-18148.154,-18149.504,-18145.492,-18141.92,-18140.973,-18144.607,-18156.092,-18161.182,-18151.16,-18147.857,-18150.227,-18147.22,-18147.889,-18149.293,-18153.527,-18160.334,-18161.264,-18160.262,-18160.58,-18155.953
-18147.617,-18147.799,-18150.982,-18151.602,-18151.52,-18148.607,-18147.877,-18150.527,-18156.188,-18161.611,-18163.29,-18158.24,-18152.533,-18154.367,-18152.992,-18153.344,-18155.432,-18153.658,-18153.857,-18149.893,-18150.496,-18154.088,-18153.338,-18154.871,-18155.947
-18158.857,-18157.025,-18158.398,-18172.883,-18176.467,-18165.898,-18154.836,-18150.89,-18153.447,-18152.523,-18154.773,-18160.613,-18155.58,-18150.084,-18155.594,-18161.861,-18168.43,-18170.566,-18163.988,-18163.498,-18161.658,-18152.145,-18151.38,-18152.37,-18149.52
-18156.059,-18161.77,-18158.27,-18151.545,-18140.863,-18138.875,-18144.654,-18143.8,-18139.29,-18134.879,-18133.812,-18133.871,-18132.242,-18128.254,-18129.227,-18139.115,-18137.934,-18128.994,-18128.428,-18135.656,-18141.979,-18141.902,-18144.523,-18142.674,-18137.84
-18138.902,-18140.184,-18143.176,-18140.395,-18137.645,-18140.61,-18147.248,-18160.666,-18162.396,-18153.98,-18150.402,-18149.959,-18147.424,-18144.877,-18151.293,-18154.018,-18147.652,-18145.053,-18145.965,-18148.244,-18151.46,-18151.672,-18152.584,-18154.678,-18150.025
-18151.455,-18161.68,-18161.66,-18154.895,-18149.86,-18146.182,-18143.506,-18144.738,-18146.883,-18142.496,-18144.068,-18150.816,-18148.955,-18148.166,-18149.734,-18148.562,-18151.525,-18154.512,-18150.91,-18145.766,-18144.871,-18150.242,-18157.232,-18156.291,-18151.025
-18151.738,-18155.96,-18160.098,-18161.445,-18154.422,-18147.246,-18146.695,-18146.066,-18151.012,-18158.434,-18156.707,-18155.25,-18152.63,-18146.05,-18144.08,-18142.004,-18135.514,-18127.682,-18126.115,-18133.238,-18137.176,-18134.973,-18134.312,-18132.008,-18132.115
-18139.447,-18138.926,-18134.389,-18134.5,-18133.738,-18138.604,-18143.932,-18142.107,-18141.65,-18142.828,-18144.254,-18147.74,-18150.504,-18153.43,-18156.398,-18150.305,-18143.291,-18149.2,-18149.682,-18145.96,-18158.348,-18164.291,-18156.447,-18151.041,-18144.14
-18143.127,-18144.672,-18142.398,-18144.678,-18144.707,-18143.064,-18142.818,-18142.857,-18141.63,-18141.059,-18143.764,-18142.781,-18144.21,-18141.438,-18138.684,-18144.998,-18141.068,-18141.592,-18151.617,-18152.953,-18147.043,-18143.775,-18143.81,-18133.088,-18130.914
-18141.352,-18148.605,-18151.252,-18142.48,-18142.994,-18142.633,-18137.02,-18145.275,-18145.438,-18145.78,-18145.248,-18139.137,-18142.73,-18139.646,-18136.03,-18140.293,-18140.918,-18135.406,-18133.373,-18140.887,-18149.266,-18155.688,-18151.56,-18142.984,-18142.57
-18142.26,-18138.232,-18134.83,-18136.184,-18133.4,-18131.158,-18133.125,-18131.484,-18136.73,-18138.924,-18140.572,-18152.377,-18153.217,-18151.135,-18149.86,-18145.125,-18151.164,-18149.418,-18142.314,-18144.947,-18143.049,-18143.96,-18147.055,-18149.537,-18153.445
-18147.25,-18142.291,-18136.709,-18129.96,-18136.107,-18143.455,-18146.863,-18141.412,-18130.506,-18126.654,-18124.316,-18125.764,-18129.887,-18129.518,-18128.2,-18131.178,-18133.682,-18133.465,-18137.123,-18141.908,-18148.828,-18154.7,-18152.777,-18145.93,-18137.664
-18136.77,-18141.398,-18143.484,-18145.2,-18149.52,-18150.049,-18145.639,-18144.82,-18141.232,-18138.521,-18142.76,-18141.15,-18136.902,-18136.398,-18136.473,-18134.756,-18130.27,-18132.037,-18136.893,-18132.854,-18132.934,-18142.502,-18149.865,-18149.336,-18139.686
-18136.63,-18136.986,-18129.57,-18128.994,-18128.613,-18124.879,-18126.611,-18131.8,-18142.787,-18144.768,-18137.979,-18140.52,-18136.736,-18128.719,-18132.47,-18130.521,-18124.412,-18124.596,-18126.484,-18136.84,-18141.71,-18132.662,-18128.52,-18125.746,-18126.795
-18132.357,-18120.066,-18108.803,-18120.7,-18130.809,-18133.28,-18139.79,-18144.025,-18141.26,-18136.303,-18141.027,-18147.518,-18142.602,-18139.36,-18141.008,-18143.566,-18146.924,-18149.37,-18154.799,-18155.258,-18146.428,-18142.562,-18149.83,-18154.803,-18148.768
-18144.412,-18145.934,-18144.053,-18141.832,-18144.21,-18145.312,-18143.68,-18139.824,-18133.398,-18135.357,-18141.156,-18143.791,-18148.785,-18148.395,-18148.896,-18153.207,-18154.877,-18155.904,-18152.904,-18153.787,-18154.895,-18148.123,-18138.307,-18135.514,-18141.555
-18143.51,-18149.07,-18149.9,-18143.516,-18143.924,-18140.781,-18141.875,-18141.414,-18135.719,-18135.104,-18130.777,-18130.336,-18134.668,-18140.24,-18143.092,-18140.49,-18138.379,-18131.988,-18133.479,-18139.908,-18141.312,-18146.412,-18144.64,-18141.57,-18142.717
-18137.129,-18135.406,-18137.076,-18135.658,-18134.35,-18130.807,-18132.361,-18137.72,-18140.234,-18143.531,-18140.373,-18131.271,-18128.418,-18131.0,-18131.588,-18134.115,-18139.33,-18136.738,-18133.568,-18139.367,-18143.664,-18140.129,-18138.746,-18143.049,-18147.592
-18151.951,-18150.473,-18144.35,-18140.66,-18136.273,-18135.348,-18141.475,-18143.816,-18139.695,-18131.781,-18127.3,-18133.752,-18130.906,-18129.006,-18135.19,-18124.162,-18130.895,-18148.152,-18138.602,-18129.107,-18126.756,-18132.717,-18138.064,-18136.557,-18140.375
-18136.275,-18134.127,-18142.672,-18146.418,-18142.965,-18141.615,-18142.242,-18135.691,-18134.514,-18137.99,-18139.254,-18140.832,-18135.95,-18133.367,-18133.035,-18130.418,-18131.51,-18135.9,-18140.32,-18140.402,-18136.887,-18133.602,-18137.531,-18138.182,-18133.943
-18140.21,-18139.29,-18133.008,-18138.877,-18147.78,-18151.03,-18141.512,-18128.709,-18121.146,-18116.531,-18118.375,-18119.746,-18121.473,-18125.652,-18127.441,-18130.229,-18127.752,-18121.498,-18119.805,-18115.11,-18110.79,-18115.719,-18122.027,-18121.617,-18120.713
-18128.26,-18136.693,-18137.986,-18139.605,-18140.041,-18134.678,-18134.215,-18141.674,-18145.492,-18141.309,-18136.31,-18130.844,-18131.871,-18140.938,-18139.316,-18140.426,-18147.121,-18144.469,-18144.17,-18138.25,-18131.354,-18133.367,-18133.92,-18137.398,-18139.363
-18139.805,-18144.322,-18148.584,-18149.785,-18151.166,-18151.219,-18138.807,-18130.201,-18134.838,-18138.783,-18143.262,-18146.287,-18142.312,-18135.863,-18136.977,-18140.682,-18138.326,-18136.318,-18136.838,-18136.297,-18130.297,-18128.857,-18137.68,-18142.826,-18140.875
-18138.434,-18138.668,-18137.041,-18135.557,-18134.879,-18133.238,-18136.93,-18138.324,-18136.914,-18139.416,-18139.375,-18140.877,-18146.732,-18145.441,-18143.273,-18146.928,-18148.174,-18153.244,-18155.873,-18149.506,-18145.887,-18147.727,-18156.646,-18159.822,-18154.566
-18156.09,-18158.46,-18152.85,-18148.318,-18157.742,-18165.395,-18159.441,-18149.637,-18137.803,-18134.254,-18135.861,-18133.82,-18134.521,-18132.965,-18130.758,-18135.803,-18144.0,-18144.018,-18138.219,-18136.662,-18133.734,-18135.701,-18140.459,-18137.637,-18138.027
-18138.252,-18137.035,-18133.635,-18130.281,-18138.316,-18139.727,-18142.363,-18156.744,-18161.338,-18159.88,-18154.072,-18149.006,-18149.975,-18146.64,-18146.305,-18150.18,-18150.822,-18144.639,-18138.846,-18146.006,-18151.752,-18148.775,-18147.885,-18146.441,-18145.033
-18143.219,-18140.19,-18143.584,-18147.299,-18148.969,-18147.342,-18140.402,-18141.537,-18146.332,-18146.158,-18146.973,-18147.514,-18143.787,-18139.625,-18138.973,-18141.072,-18145.58,-18149.164,-18153.795,-18156.715,-18153.414,-18154.762,-18156.969,-18154.09,-18151.754
-18150.11,-18149.9,-18147.254,-18143.078,-18144.127,-18150.592,-18154.748,-18152.838,-18157.344,-18163.102,-18161.92,-18163.79,-18162.297,-18154.834,-18149.42,-18146.068,-18144.625,-18144.283,-18144.873,-18145.432,-18146.947,-18148.605,-18145.523,-18139.357,-18136.764
-18141.025,-18144.316,-18144.654,-18143.51,-18139.133,-18143.318,-18152.105,-18151.035,-18147.09,-18149.062,-18150.16,-18145.43,-18145.984,-18150.096,-18154.45,-18160.084,-18155.336,-18149.566,-18149.422,-18146.432,-18148.424,-18156.277,-18156.832,-18151.602,-18149.828
-18147.068,-18145.703,-18144.975,-18142.285,-18144.111,-18142.195,-18145.879,-18154.732,-18153.564,-18153.77,-18151.04,-18149.174,-18153.545,-18150.943,-18148.361,-18144.877,-18141.756,-18147.688,-18149.37,-18147.854,-18151.62,-18151.07,-18151.76,-18157.645,-18157.902
-18155.666,-18154.916,-18158.115,-18162.45,-18162.287,-18159.283,-18153.482,-18156.674,-18162.56,-18158.604,-18160.541,-18159.7,-18150.043,-18144.8,-18143.559,-18150.463,-18154.908,-18154.115,-18158.6,-18160.781,-18154.547,-18140.816,-18141.828,-18157.295,-18161.21
-18159.314,-18156.482,-18155.797,-18160.13,-18161.205,-18160.012,-18155.977,-18150.47,-18150.957,-18153.482,-18152.123,-18153.26,-18153.531,-18147.98,-18144.105,-18140.834,-18144.457,-18149.861,-18142.764,-18140.87,-18144.314,-18141.207,-18140.184,-18140.412,-18144.979
-18154.375,-18155.25,-18151.277,-18154.232,-18157.936,-18155.922,-18155.758,-18154.557,-18149.445,-18144.924,-18140.258,-18142.67,-18145.037,-18143.48,-18144.986,-18135.594,-18130.814,-18140.447,-18143.7,-18146.598,-18147.428,-18148.676,-18155.979,-18155.383,-18152.45
-18151.357,-18151.9,-18152.67,-18150.973,-18156.072,-18159.688,-18158.725,-18163.773,-18166.92,-18157.916,-18148.092,-18150.8,-18152.09,-18148.668,-18146.443,-18143.174,-18144.438,-18139.83,-18139.81,-18154.055,-18161.031,-18164.49,-18160.871,-18151.828,-18147.404
-18138.621,-18138.73,-18141.633,-18131.52,-18128.227,-18133.963,-18135.762,-18143.271,-18148.732,-18142.514,-18151.537,-18156.738,-18145.299,-18148.01,-18146.342,-18140.424,-18144.998,-18153.91,-18161.746,-18157.133,-18157.312,-18159.838,-18157.648,-18158.383,-18155.48
-18154.76,-18149.955,-18147.09,-18147.715,-18147.354,-18152.842,-18147.338,-18147.195,-18156.092,-18158.803,-18164.775,-18163.941,-18162.668,-18161.082,-18154.232,-18151.795,-18150.299,-18153.17,-18153.438,-18151.768,-18151.086,-18146.188,-18151.123,-18159.525,-18155.996
-18153.104,-18156.88,-18153.021,-18147.105,-18144.67,-18141.848,-18146.125,-18148.695,-18153.37,-18162.105,-18164.283,-18166.318,-18158.215,-18150.992,-18156.377,-18150.924,-18146.055,-18155.146,-18158.148,-18154.77,-18155.502,-18148.918,-18143.588,-18152.559,-18151.977
-18146.334,-18151.746,-18151.955,-18147.19,-18148.223,-18147.97,-18149.037,-18158.297,-18160.244,-18157.25,-18156.232,-18153.094,-18155.45,-18152.242,-18148.426,-18152.945,-18151.303,-18149.508,-18146.027,-18141.578,-18142.736,-18140.23,-18137.473,-18136.424,-18135.898
-18136.56,-18138.842,-18145.459,-18150.236,-18151.35,-18148.982,-18149.082,-18156.719,-18158.232,-18153.42,-18151.488,-18145.975,-18140.65,-18145.562,-18147.783,-18142.855,-18142.213,-18142.44,-18141.332,-18142.305,-18142.826,-18146.404,-18157.979,-18168.45,-18168.408
-18159.271,-18152.295,-18153.283,-18146.508,-18139.01,-18146.65,-18148.43,-18143.104,-18144.111,-18143.314,-18140.803,-18140.588,-18143.994,-18149.152,-18154.535,-18156.715,-18150.465,-18153.371,-18159.562,-18152.365,-18152.203,-18157.516,-18159.068,-18162.354,-18161.98
-18162.916,-18164.383,-18158.834,-18154.146,-18153.723,-18153.998,-18152.715,-18152.07,-18153.348,-18147.916,-18138.879,-18142.074,-18151.098,-18151.172,-18149.92,-18150.354,-18147.125,-18145.545,-18144.133,-18145.324,-18153.428,-18154.719,-18151.918,-18156.213,-18155.24
-18150.92,-18155.71,-18159.598,-18160.19,-18160.67,-18156.223,-18151.42,-18148.676,-18148.932,-18149.67,-18145.729,-18144.086,-18142.494,-18135.39,-18128.697,-18129.205,-18136.557,-18141.83,-18148.62,-18158.836,-18157.408,-18144.512,-18139.965,-18145.068,-18140.424
-18134.408,-18142.824,-18151.557,-18152.365,-18152.965,-18152.703,-18153.031,-18162.791,-18169.05,-18165.518,-18166.244,-18164.459,-18161.404,-18163.172,-18160.35,-18160.283,-18159.36,-18151.162,-18149.686,-18148.736,-18144.568,-18146.604,-18151.191,-18150.41,-18146.242
-18147.107,-18146.164,-18144.805,-18148.97,-18150.537,-18153.535,-18156.754,-18156.19,-18153.463,-18146.053,-18145.723,-18158.197,-18162.854,-18153.834,-18153.953,-18163.188,-18163.932,-18158.508,-18151.713,-18148.076,-18149.045,-18150.643,-18152.553,-18147.188,-18143.2
-18151.805,-18153.771,-18146.393,-18146.01,-18153.533,-18157.645,-18157.902,-18159.06,-18148.982,-18139.29,-18141.447,-18144.623,-18151.904,-18154.15,-18151.592,-18155.818,-18161.541,-18161.04,-18154.896,-18157.273,-18160.498,-18158.006,-18157.828,-18157.037,-18157.365
-18155.205,-18157.682,-18164.348,-18165.51,-18163.723,-18156.854,-18157.992,-18161.05,-18159.547,-18161.557,-18155.477,-18150.6,-18151.771,-18156.627,-18164.396,-18164.045,-18159.129,-18155.94,-18165.701,-18174.65,-18171.844,-18171.777,-18163.084,-18159.787,-18165.205
-18160.355,-18165.984,-18176.518,-18178.365,-18176.828,-18168.396,-18162.209,-18164.883,-18166.645,-18164.44,-18167.469,-18167.85,-18162.807,-18165.303,-18166.506,-18164.268,-18166.008,-18168.828,-18169.363,-18165.592,-18160.332,-18158.53,-18162.426,-18167.285,-18173.582
-18177.518,-18172.268,-18171.285,-18176.006,-18179.559,-18179.451,-18168.812,-18160.049,-18159.094,-18158.238,-18167.111,-18182.54,-18185.166,-18177.502,-18175.184,-18179.598,-18180.564,-18179.166,-18177.15,-18169.621,-18165.85,-18168.93,-18173.15,-18178.955,-18184.127
-18190.15,-18190.549,-18182.756,-18182.717,-18186.078,-18180.67,-18177.49,-18180.12,-18177.7,-18174.922,-18175.756,-18174.1,-18172.217,-18169.264,-18165.84,-18166.94,-18173.732,-18180.098,-18180.076,-18180.355,-18176.002,-18168.592,-18169.504,-18170.746,-18170.71
-18171.223,-18177.89,-18186.195,-18177.883,-18170.73,-18171.979,-18172.559,-18179.252,-18179.656,-18177.832,-18177.865,-18173.016,-18177.94,-18180.88,-18181.25,-18186.688,-18182.348,-18181.531,-18185.076,-18183.643,-18185.848,-18189.03,-18185.69,-18176.582,-18174.605
-18175.719,-18172.465,-18175.07,-18180.668,-18181.34,-18178.451,-18178.867,-18180.564,-18183.197,-18184.293,-18177.176,-18172.443,-18170.531,-18173.078,-18171.943,-18166.32,-18172.676,-18167.773,-18166.348,-18175.87,-18169.898,-18176.846,-18183.332,-18177.396,-18181.291
-18176.363,-18171.535,-18175.744,-18176.7,-18179.844,-18183.176,-18182.994,-18181.613,-18181.207,-18178.158,-18176.236,-18178.295,-18176.705,-18176.486,-18173.633,-18166.764,-18169.094,-18171.193,-18166.715,-18167.588,-18169.656,-18169.05,-18172.4,-18171.635,-18168.762
-18174.076,-18174.375,-18165.928,-18159.729,-18159.795,-18169.105,-18177.393,-18174.826,-18173.54,-18177.398,-18177.172,-18179.666,-18184.498,-18179.668,-18176.195,-18171.902,-18165.604,-18179.115,-18190.393,-18181.928,-18176.947,-18174.064,-18168.88,-18171.746,-18177.354
-18179.238,-18177.684,-18174.508,-18174.955,-18172.072,-18169.719,-18178.643,-18185.217,-18183.893,-18175.766,-18171.404,-18182.979,-18191.318,-18189.896,-18185.434,-18183.033,-18187.988,-18188.078,-18184.406,-18183.125,-18180.5,-18179.44,-18180.586,-18181.734,-18178.512
-18173.746,-18174.576,-18176.045,-18170.72,-18168.95,-18172.06,-18168.621,-18173.336,-18176.658,-18170.979,-18174.885,-18171.78,-18167.531,-18168.13,-18162.035,-18166.361,-18173.342,-18171.75,-18168.537,-18170.613,-18181.607,-18184.662,-18175.053,-18164.822,-18163.604
-18169.836,-18166.97,-18164.451,-18171.902,-18168.383,-18168.252,-18181.33,-18179.996,-18178.502,-18185.902,-18186.11,-18185.148,-18181.178,-18176.916,-18179.203,-18181.543,-18182.72,-18182.152,-18179.965,-18178.096,-18175.494,-18175.662,-18179.174,-18183.152,-18193.28
-18198.742,-18188.38,-18179.824,-18180.227,-18183.791,-18187.752,-18186.82,-18184.242,-18187.941,-18185.285,-18172.564,-18174.967,-18186.117,-18192.258,-18198.479,-18192.979,-18183.1,-18178.912,-18171.043,-18173.215,-18182.553,-18179.217,-18179.186,-18183.404,-18180.096
-18180.537,-18182.021,-18181.66,-18181.24,-18177.51,-18176.354,-18179.047,-18180.91,-18179.469,-18176.465,-18171.832,-18171.863,-18179.307,-18175.605,-18167.523,-18171.281,-18172.76,-18169.463,-18167.52,-18166.428,-18172.41,-18178.145,-18176.78,-18180.29,-18181.418
-18173.758,-18175.89,-18181.166,-18177.688,-18177.105,-18181.775,-18183.316,-18180.533,-18180.596,-18177.277,-18175.283,-18181.516,-18178.135,-18176.588,-18179.72,-18175.32,-18178.344,-18185.35,-18192.494,-18198.871,-18197.309,-18194.883,-18190.201,-18188.531,-18189.992
-18180.256,-18177.498,-18185.992,-18183.963,-18184.27,-18186.56,-18178.982,-18177.066,-18174.408,-18165.535,-18161.291,-18162.24,-18169.008,-18174.688,-18173.545,-18171.209,-18178.129,-18181.715,-18170.307,-18165.29,-18163.256,-18163.895,-18173.668,-18173.377,-18173.17
-18179.594,-18178.158,-18174.527,-18175.967,-18180.443,-18189.502,-18191.629,-18177.71,-18173.969,-18177.615,-18170.12,-18171.979,-18181.973,-18179.959,-18176.045,-18180.371,-18182.389,-18182.287,-18179.514,-18173.889,-18171.31,-18164.443,-18161.678,-18165.65,-18169.32
-18179.398,-18186.47,-18182.982,-18178.934,-18179.91,-18179.455,-18174.795,-18170.246,-18168.006,-18173.613,-18178.844,-18173.916,-18168.299,-18163.938,-18162.57,-18171.318,-18176.938,-18170.814,-18168.965,-18175.113,-18176.402,-18172.488,-18170.545,-18171.56,-18172.002
