0.0,1673.4255,1388.0209,-10507.17,-19982.57,-14155.236,-14276.88,-16875.492,-13191.672,-15759.772,-15050.439,-14632.301,-17410.861,-16036.527,-17848.361,-17266.219,-16922.504,-17878.734,-16568.117,-17760.703,-16956.771,-17147.25,-17356.508,-16149.464,-16012.412
-14567.002,-14667.061,-14343.291,-14169.77,-14790.69,-14583.081,-15390.4,-15683.041,-16385.572,-16945.525,-17011.656,-17512.674,-17355.014,-17462.424,-17221.043,-16797.855,-16483.295,-15921.747,-15759.255,-15435.842,-15207.374,-15075.356,-14925.337,-14955.127,-14963.893
-15178.865,-15396.344,-15684.449,-16017.738,-16274.798,-16594.598,-16798.457,-16953.52,-16996.574,-16934.941,-16894.371,-16882.219,-16889.234,-16731.316,-16619.21,-16777.557,-16965.713,-16819.275,-16299.065,-15722.37,-15243.168,-15074.441,-15262.073,-15518.986,-15788.198
-16045.911,-16272.54,-16495.342,-16601.93,-16569.121,-16474.559,-16303.462,-16076.216,-15926.185,-15886.132,-15840.138,-15661.17,-15499.616,-15618.939,-15786.503,-15833.887,-16018.321,-16272.561,-16446.164,-16594.543,-16691.947,-16749.717,-16791.076,-16947.34,-17220.127
-17213.404,-16843.934,-16431.879,-16212.569,-16144.77,-15894.51,-15443.048,-15148.88,-15033.135,-15031.61,-15204.993,-15458.774,-15777.657,-16099.737,-16331.62,-16530.828,-16763.893,-17042.568,-17217.89,-17146.871,-16676.627,-16032.608,-15688.584,-15500.144,-15431.6045
-15641.34,-15927.271,-16195.512,-16405.752,-16628.947,-16922.77,-16861.553,-16422.232,-16163.232,-16034.064,-15872.6,-15939.378,-16073.723,-16086.49,-16095.083,-16048.058,-15969.713,-15911.537,-15840.688,-15740.933,-15628.93,-15628.001,-15726.85,-15798.035,-15739.256
-15697.055,-15872.846,-16071.981,-16238.789,-16485.908,-16693.896,-16790.027,-16929.951,-16954.594,-16574.453,-16224.46,-16055.627,-15886.118,-15899.383,-15910.917,-15900.016,-16012.149,-16085.324,-16048.659,-15960.765,-16032.637,-16157.303,-16254.841,-16441.66,-16411.21
-16205.139,-16087.565,-16018.231,-16025.646,-16039.712,-16053.432,-16058.933,-15991.496,-15961.626,-15938.827,-16002.95,-16176.761,-16233.816,-16200.913,-16225.406,-16352.668,-16385.254,-16342.92,-16383.054,-16325.875,-16231.861,-16086.007,-15947.819,-16147.561,-16420.25
-16424.92,-16230.763,-16124.8,-16296.267,-16666.082,-16930.61,-16641.848,-16096.1045,-15670.692,-15401.492,-15555.406,-15704.812,-15697.386,-15812.13,-15825.85,-15921.554,-16088.371,-16296.314,-16568.23,-16502.39,-16345.537,-16293.716,-16276.889,-16306.599,-16171.694
-15966.314,-15838.684,-15861.615,-15957.853,-15931.946,-15961.669,-16224.826,-16613.303,-16702.88,-16354.393,-16043.735,-15895.662,-15857.881,-15952.877,-15951.092,-16033.051,-16298.923,-16398.582,-16411.236,-16488.127,-16577.074,-16486.207,-16155.048,-15989.257,-16096.345
-16282.854,-16351.203,-16204.123,-15975.134,-15717.683,-15668.004,-15891.631,-16080.9795,-16188.797,-16271.642,-16214.211,-15961.7705,-15851.165,-15953.624,-15969.049,-15922.792,-15882.43,-15936.527,-16113.589,-16407.64,-16746.803,-16898.84,-16819.133,-16471.28,-16284.19
-16500.1,-16673.193,-16629.426,-16200.823,-15709.701,-15564.464,-15560.844,-15692.829,-15875.429,-16059.789,-16201.16,-16195.985,-16235.456,-16362.977,-16455.111,-16296.241,-15970.939,-15749.582,-15595.2295,-15582.682,-15707.142,-15854.14,-16053.171,-16279.678,-16462.086
-16518.105,-16496.912,-16441.984,-16350.918,-16316.465,-16240.084,-16121.299,-16254.567,-16664.121,-17010.105,-16847.387,-16204.854,-15777.687,-15690.727,-15537.293,-15549.279,-15766.898,-15854.862,-15929.581,-16102.319,-16461.44,-16806.076,-16724.355,-16475.12,-16254.241
-15979.023,-15776.456,-15652.401,-15611.12,-15731.466,-15878.636,-15893.868,-15910.51,-15995.777,-16029.695,-16096.002,-16223.869,-16358.196,-16506.832,-16467.21,-16273.977,-16256.888,-16381.253,-16454.02,-16331.826,-16012.908,-15810.597,-15885.193,-16149.179,-16448.553
-16620.158,-16605.096,-16296.336,-15914.825,-15846.335,-16026.79,-16422.115,-16827.484,-16929.2,-16826.383,-16414.004,-15847.645,-15576.056,-15493.222,-15524.758,-15638.551,-15722.2,-15823.919,-15901.952,-15968.281,-16035.037,-16079.225,-16084.838,-16036.663,-16008.552
-15963.448,-15922.913,-15933.986,-16018.675,-16262.252,-16413.879,-16359.234,-16306.606,-16196.159,-16138.292,-16264.465,-16333.265,-16518.121,-16939.906,-16920.648,-16362.917,-16025.749,-16122.843,-16485.078,-16702.861,-16336.257,-15914.061,-15788.931,-15639.475,-15539.032
-15576.641,-15649.086,-15772.581,-15983.963,-16161.384,-16185.814,-16122.582,-16071.233,-16204.109,-16437.879,-16416.994,-16196.868,-16045.939,-15984.348,-16019.561,-16082.262,-16082.638,-16104.707,-16100.911,-16339.484,-16975.598,-17310.38,-17121.477,-16868.045,-16655.877
-16265.769,-15777.184,-15574.179,-15615.9,-15707.152,-15828.652,-15860.3955,-15865.225,-15985.191,-16128.499,-16153.6,-16069.343,-16013.044,-15979.985,-15977.165,-16018.82,-16017.906,-16086.914,-16144.478,-16103.815,-16115.031,-16261.1,-16674.174,-16949.184,-16692.322
-16267.973,-16002.657,-15957.849,-15978.052,-15967.176,-15923.082,-15811.681,-15765.868,-15740.182,-15694.685,-15718.538,-15778.676,-15881.254,-15946.096,-15973.335,-16035.097,-16117.952,-16355.422,-16563.969,-16502.85,-16525.523,-16746.688,-16846.686,-16969.758,-17196.525
-16900.188,-16150.705,-15629.435,-15384.97,-15462.597,-15695.254,-15762.866,-15818.338,-15859.628,-15898.806,-15997.366,-16125.484,-16267.43,-16309.665,-16389.824,-16536.645,-16563.984,-16512.328,-16358.028,-16145.203,-16072.965,-16026.357,-15941.576,-15970.434,-16088.796
-16303.344,-16431.812,-16286.656,-16121.691,-16085.312,-16213.271,-16393.45,-16372.555,-16164.004,-15914.661,-15795.637,-15778.767,-15811.65,-15915.197,-15912.654,-15836.494,-15842.11,-15922.385,-16008.9795,-16027.444,-16030.291,-16083.687,-16153.101,-16192.568,-16321.802
-16606.537,-16824.398,-16755.96,-16346.954,-15893.251,-15748.245,-15784.481,-15828.308,-15936.881,-16004.744,-15961.938,-15995.181,-16041.514,-16014.417,-16099.635,-16255.933,-16340.345,-16304.112,-16238.957,-16320.588,-16455.36,-16515.914,-16478.2,-16329.468,-16128.8955
-15986.741,-15938.655,-15884.599,-15896.468,-16038.6875,-16186.386,-16288.469,-16330.696,-16330.719,-16218.295,-16021.843,-15920.103,-15879.49,-15969.24,-16283.049,-16622.61,-16714.617,-16557.748,-16488.812,-16585.773,-16781.559,-17001.777,-16876.871,-16384.635,-15905.044
-15656.113,-15599.318,-15631.602,-15760.17,-15910.494,-16029.789,-16155.055,-16163.011,-16018.147,-15925.675,-15961.303,-16016.247,-15951.551,-15818.492,-15875.587,-16076.476,-16244.962,-16268.045,-16161.562,-16240.443,-16462.564,-16640.246,-16668.64,-16472.229,-16345.574
-16240.024,-16017.831,-15874.66,-15830.392,-15823.325,-15750.16,-15685.169,-15677.673,-15676.066,-15805.81,-16012.358,-16226.592,-16374.104,-16321.03,-16251.813,-16448.21,-16785.684,-16866.332,-16688.45,-16493.05,-16276.356,-16073.448,-16122.057,-16296.761,-16144.641
-15802.81,-15639.381,-15622.288,-15750.203,-15943.447,-16017.332,-16029.42,-16048.228,-16084.588,-16195.147,-16357.262,-16444.928,-16385.418,-16215.841,-16025.26,-15990.928,-16141.554,-16343.263,-16659.424,-17187.975,-17639.17,-17512.074,-16884.97,-16167.521,-15549.12
-15264.961,-15285.86,-15445.26,-15656.329,-15755.366,-15825.622,-15903.139,-15927.868,-15938.511,-15933.798,-15936.452,-15918.26,-15899.38,-15893.639,-15894.009,-15937.413,-15954.599,-15983.351,-16069.896,-16143.017,-16230.365,-16381.316,-16603.283,-16830.5,-16821.758
-16471.012,-16149.456,-16044.222,-15961.135,-16059.719,-16397.254,-16526.857,-16236.054,-15867.955,-15742.899,-15768.24,-15827.156,-15877.9,-15944.05,-16057.248,-16134.893,-16184.982,-16220.616,-16390.521,-16721.645,-16812.484,-16561.82,-16232.767,-15985.452,-15871.42
-15886.956,-15999.149,-16145.556,-16308.74,-16452.004,-16542.273,-16802.488,-17036.273,-16775.787,-16299.041,-15808.526,-15474.874,-15560.742,-15675.272,-15759.584,-15972.832,-16136.556,-16119.181,-15989.265,-15959.251,-15918.082,-15937.934,-16102.814,-16162.597,-16173.561
-16164.077,-16141.359,-16098.409,-16009.654,-15993.224,-15984.834,-16029.554,-16147.964,-16218.278,-16241.932,-16237.99,-16294.456,-16326.934,-16260.336,-16238.289,-16216.615,-16199.114,-16248.656,-16203.011,-16122.464,-16172.096,-16125.963,-15936.013,-15843.006,-15846.419
-15937.228,-16092.056,-16172.444,-16163.11,-16161.668,-16183.21,-16202.257,-16360.356,-16487.967,-16352.379,-16249.462,-16498.14,-16970.383,-16951.314,-16426.934,-16143.899,-16064.369,-16106.037,-16166.55,-15989.89,-15889.543,-15905.263,-15907.513,-16040.908,-16354.247
-16609.46,-16484.64,-16194.003,-15960.65,-15813.477,-15944.05,-16033.33,-15832.976,-15716.015,-15690.103,-15747.538,-16001.374,-16132.398,-16131.241,-16126.13,-16080.252,-16108.266,-16156.674,-16173.622,-16173.929,-16181.13,-16268.792,-16312.598,-16212.811,-16080.617
-16023.324,-15998.214,-15960.686,-15970.211,-16018.312,-16047.804,-16069.305,-16077.283,-16117.501,-16259.225,-16404.734,-16541.39,-16598.066,-16394.67,-16148.992,-16037.819,-16037.718,-16198.261,-16302.892,-16202.832,-16064.343,-16030.575,-16150.504,-16212.655,-16079.521
-15957.403,-15926.34,-15953.102,-16009.108,-16041.687,-16060.21,-16141.148,-16394.688,-16658.424,-16607.375,-16276.095,-15993.966,-15898.326,-15881.741,-15895.197,-15898.146,-15843.146,-15790.185,-15835.114,-15993.315,-16228.471,-16449.154,-16479.723,-16414.441,-16379.558
-16282.421,-16216.579,-16201.986,-16258.508,-16578.459,-16847.104,-16589.717,-16230.47,-16266.916,-16328.9375,-16281.668,-16169.416,-15899.851,-15787.304,-15827.083,-15889.486,-15979.244,-15955.708,-15924.304,-15939.324,-15948.301,-15943.066,-15929.063,-15911.039,-15864.624
-15862.395,-15877.11,-15888.309,-15922.046,-15952.788,-16009.049,-16083.444,-16187.62,-16369.093,-16702.387,-17043.99,-17058.197,-16777.664,-16420.871,-16168.923,-16039.861,-15851.37,-15737.425,-15753.245,-15758.541,-15860.601,-16070.985,-16395.225,-16693.828,-16710.52
-16612.945,-16557.979,-16447.088,-16279.01,-16238.023,-16302.6,-16285.065,-16084.912,-15786.516,-15716.412,-15750.761,-15770.848,-15883.725,-15980.812,-16133.888,-16148.262,-16003.201,-15933.334,-15872.537,-15846.036,-15778.065,-15750.691,-15817.688,-15892.336,-16034.151
-16100.744,-16142.075,-16310.306,-16561.092,-16661.938,-16442.172,-16279.606,-16233.324,-16072.947,-16039.413,-16134.465,-16253.35,-16357.435,-16201.27,-15961.726,-15819.949,-15756.425,-15898.926,-16104.391,-16195.253,-16132.937,-16073.54,-16118.27,-16079.747,-16055.333
-16071.761,-16028.771,-16006.44,-16003.824,-16050.825,-16104.872,-16142.138,-16178.981,-16131.906,-16079.752,-16122.435,-16208.517,-16222.675,-16159.908,-16135.756,-16213.762,-16382.387,-16480.596,-16408.227,-16407.969,-16625.928,-16679.9,-16473.227,-16433.379,-16547.832
-16747.848,-17006.78,-16773.71,-16054.832,-15553.055,-15391.341,-15396.452,-15525.2705,-15625.832,-15735.938,-15836.743,-15878.518,-15942.421,-15959.741,-16017.087,-16104.994,-16135.522,-16204.07,-16286.422,-16260.791,-16070.511,-15922.191,-15908.372,-15977.931,-16130.172
-16218.179,-16273.262,-16337.625,-16440.568,-16703.152,-16857.979,-16623.678,-16270.346,-16144.729,-16283.297,-16566.541,-16616.152,-16361.287,-16111.111,-15821.219,-15617.378,-15635.098,-15716.22,-15845.053,-15970.507,-16093.025,-16171.174,-16135.532,-16063.595,-16027.676
-16071.832,-16132.165,-16273.377,-16473.107,-16441.41,-16213.901,-16094.399,-16134.26,-16154.525,-16103.154,-16046.69,-16137.198,-16352.635,-16366.519,-16226.64,-16167.048,-16124.276,-16086.952,-16087.54,-16049.86,-15999.719,-15980.945,-15954.1045,-15959.099,-16022.05
-16071.917,-16020.294,-15927.748,-15905.08,-15930.604,-15997.323,-16066.897,-16125.717,-16177.897,-16202.096,-16232.695,-16235.418,-16206.8955,-16177.122,-16176.146,-16222.482,-16216.648,-16107.249,-15987.266,-15960.432,-16017.64,-16138.327,-16289.906,-16430.902,-16563.734
-16608.807,-16688.555,-16876.375,-16751.88,-16281.002,-15932.861,-15814.012,-15840.278,-15947.315,-16134.202,-16517.104,-16779.422,-16613.053,-16326.549,-16026.729,-15676.055,-15571.757,-15671.16,-15770.802,-15914.074,-15991.682,-16051.213,-16176.042,-16173.302,-16157.212
-16260.001,-16373.17,-16519.29,-16658.354,-16662.236,-16474.748,-16176.944,-15930.917,-15797.898,-15820.308,-16028.531,-16350.655,-16530.408,-16418.197,-16188.019,-15951.923,-15817.978,-15833.55,-15919.581,-16074.012,-16181.147,-16184.66,-16161.068,-16191.308,-16275.221
-16302.191,-16356.949,-16554.488,-16802.932,-16844.166,-16571.463,-16319.823,-16264.731,-16232.381,-16166.313,-16101.733,-16078.361,-16080.979,-16010.808,-15920.537,-15950.697,-16042.674,-16063.621,-16027.783,-16022.438,-16180.187,-16523.662,-16757.615,-16600.604,-16214.145
-15948.553,-15763.916,-15660.151,-15796.915,-15958.987,-16167.653,-16373.466,-16317.053,-16266.94,-16266.522,-16241.376,-16231.9375,-16091.324,-15956.585,-15933.125,-15934.414,-15910.186,-15859.3,-15898.977,-15991.723,-15983.072,-15928.173,-15933.472,-15983.932,-16108.746
-16258.912,-16323.001,-16304.031,-16254.929,-16252.919,-16265.308,-16273.329,-16261.499,-16174.64,-16070.041,-15957.914,-15905.527,-15944.108,-15984.301,-15991.889,-15941.317,-15934.9795,-15992.494,-16018.856,-16066.345,-16118.201,-16151.198,-16219.917,-16313.716,-16438.973
-16534.658,-16529.117,-16467.77,-16443.215,-16565.734,-16604.67,-16341.581,-16048.762,-15858.168,-15752.238,-15731.157,-15743.219,-15848.851,-16062.861,-16407.979,-16662.271,-16503.043,-16266.21,-16262.286,-16229.869,-16052.211,-15921.453,-15929.763,-15959.697,-15943.684
-15919.63,-15877.644,-15863.151,-15939.092,-16039.873,-16084.929,-16088.213,-16141.726,-16237.356,-16244.641,-16230.069,-16264.707,-16255.585,-16290.622,-16418.203,-16676.375,-17070.203,-17101.793,-16632.312,-16091.147,-15667.094,-15577.623,-15770.034,-15904.291,-16077.134
-16273.096,-16218.002,-16015.344,-15951.456,-15975.097,-15976.463,-16080.122,-16211.762,-16222.061,-16133.36,-15978.5625,-15830.946,-15807.36,-15932.531,-16046.91,-16104.725,-16156.645,-16135.692,-16098.572,-16101.725,-16104.952,-16140.793,-16175.761,-16167.692,-16185.315
-16208.294,-16143.455,-16034.67,-15971.896,-15919.607,-15864.374,-15858.342,-15909.176,-16042.101,-16158.483,-16129.425,-16071.907,-16079.474,-16100.441,-16109.8545,-16140.915,-16224.3955,-16289.367,-16313.849,-16457.816,-16669.068,-16620.21,-16304.604,-16020.819,-15962.857
-16171.771,-16493.123,-16596.94,-16390.922,-16172.667,-16016.996,-15884.141,-15906.612,-15935.716,-15908.166,-15950.002,-15985.027,-16031.487,-16151.126,-16229.157,-16206.687,-16207.865,-16258.962,-16218.784,-16073.635,-15909.979,-15814.07,-15881.603,-16010.98,-16023.723
-16015.616,-16074.538,-16122.057,-16145.968,-16171.754,-16221.392,-16248.831,-16208.35,-16149.06,-16116.435,-16142.616,-16224.384,-16261.964,-16117.6875,-15893.997,-15805.247,-15844.784,-15930.666,-16054.941,-16370.096,-16732.54,-16692.867,-16448.082,-16334.34,-16230.693
-16132.571,-16066.213,-16011.054,-15970.658,-15907.56,-15880.471,-15863.384,-15830.874,-15874.93,-16042.324,-16354.039,-16576.709,-16448.744,-16170.33,-15962.936,-15812.464,-15784.467,-15880.794,-16024.453,-16277.693,-16582.59,-16691.662,-16572.883,-16523.314,-16606.348
-16558.754,-16350.4,-16182.813,-16110.142,-15888.145,-15645.889,-15651.89,-15631.201,-15666.363,-15838.157,-15932.124,-16076.583,-16201.574,-16219.374,-16183.345,-16111.053,-16085.73,-16061.034,-16029.292,-16005.576,-16024.689,-16090.861,-16110.3545,-16124.095,-16111.958
-16052.729,-16000.928,-15981.063,-16103.71,-16297.401,-16369.04,-16433.797,-16547.406,-16453.697,-16226.376,-16124.089,-16049.738,-15977.82,-15955.293,-15899.824,-15842.566,-15821.927,-15823.184,-15846.514,-15908.922,-15984.287,-16020.201,-16044.681,-16046.0205,-16028.01
-16047.187,-16085.415,-16135.855,-16219.467,-16300.878,-16335.115,-16316.042,-16238.567,-16188.75,-16241.278,-16366.721,-16497.324,-16430.902,-16262.155,-16214.928,-16185.892,-16185.8,-16207.517,-16275.675,-16395.352,-16495.762,-16605.271,-16399.4,-16051.396,-15871.602
-15645.228,-15598.448,-15669.827,-15709.994,-15849.145,-15932.167,-15949.05,-15911.516,-15904.116,-15926.203,-15914.448,-15997.73,-16077.664,-16119.812,-16117.572,-16074.212,-16140.027,-16201.427,-16145.884,-16098.593,-16097.246,-16074.965,-16079.537,-16088.908,-16055.28
-16060.377,-16126.813,-16290.42,-16386.738,-16270.23,-16206.009,-16257.235,-16333.207,-16400.283,-16224.07,-15947.527,-15897.39,-15981.783,-16300.574,-16703.928,-16622.842,-16272.996,-16061.948,-15941.776,-15904.513,-15879.705,-15889.592,-15962.901,-15917.671,-15859.514
-15916.379,-15971.043,-16072.516,-16248.262,-16310.184,-16207.558,-16139.05,-16103.579,-15967.489,-15880.487,-15907.54,-15961.941,-16047.01,-16108.688,-16112.373,-16098.043,-16066.394,-16032.001,-16039.623,-16063.45,-16126.463,-16264.692,-16300.212,-16135.481,-15950.804
-15874.02,-15857.13,-15924.013,-16097.703,-16215.461,-16219.697,-16168.315,-16098.15,-16085.814,-16085.674,-16042.532,-16034.676,-16139.943,-16411.24,-16679.564,-16712.934,-16526.04,-16194.886,-15888.534,-15687.867,-15625.149,-15755.832,-15888.586,-16098.681,-16320.308
-16263.696,-16145.531,-16075.48,-16090.579,-16259.05,-16521.158,-16802.5,-16894.352,-16752.1,-16353.633,-15872.452,-15620.673,-15551.144,-15599.313,-15692.981,-15789.555,-15912.091,-16012.82,-16090.446,-16179.789,-16291.376,-16341.353,-16281.098,-16174.249,-16141.56
-16271.729,-16534.48,-16618.268,-16221.508,-15775.658,-15661.57,-15657.267,-15770.88,-16034.233,-16336.922,-16787.973,-17165.412,-16955.268,-16375.767,-16000.973,-15830.51,-15723.695,-15680.346,-15676.182,-15713.868,-15779.653,-15809.498,-15772.859,-15803.497,-15905.378
-15952.024,-15982.967,-16026.54,-16050.37,-16051.619,-16080.241,-16107.314,-16146.858,-16249.441,-16260.839,-16162.897,-16092.863,-16111.513,-16143.984,-16170.346,-16242.436,-16218.672,-16198.415,-16293.761,-16293.224,-16178.899,-16061.548,-15968.161,-15887.45,-15848.566
-15867.537,-15932.072,-15991.977,-15976.532,-15979.494,-16006.824,-16067.19,-16142.718,-16055.645,-15964.354,-16026.761,-16165.275,-16268.349,-16214.485,-16140.013,-16173.978,-16244.758,-16234.744,-16113.544,-16040.804,-16064.893,-16134.092,-16190.828,-16149.357,-16095.861
-16066.519,-16034.46,-16081.834,-16135.418,-16065.227,-15931.169,-15846.279,-15808.918,-15786.804,-15811.909,-15878.061,-15934.803,-15979.28,-16028.733,-16055.891,-16070.88,-16089.389,-16098.901,-16156.476,-16217.45,-16178.893,-16106.861,-16060.454,-16019.559,-16027.744
-16083.869,-16108.423,-16096.897,-16087.423,-16091.703,-16084.13,-16100.77,-16199.118,-16311.384,-16371.252,-16373.694,-16343.364,-16247.467,-16097.222,-15991.481,-15925.908,-15959.025,-16032.0,-15957.26,-15862.587,-15939.856,-16147.441,-16288.212,-16229.389,-16077.32
-16002.863,-16021.1455,-16061.639,-16070.51,-16047.83,-16097.437,-16138.689,-16062.526,-16043.021,-16041.621,-15988.943,-16056.091,-16167.379,-16245.792,-16327.684,-16241.916,-16038.717,-16014.713,-16161.043,-16285.687,-16263.928,-16102.229,-15953.607,-15888.354,-15878.767
-15902.071,-15966.667,-16048.1,-16099.768,-16249.207,-16520.795,-16698.746,-16711.143,-16641.828,-16410.066,-16024.051,-15773.197,-15641.483,-15585.785,-15696.015,-15791.793,-15867.101,-15946.233,-15963.958,-15996.59,-16016.28,-16007.188,-15991.648,-15961.901,-15940.868
-15921.59,-15928.245,-15991.501,-16057.066,-16118.524,-16178.51,-16145.735,-16132.118,-16202.339,-16177.038,-16130.534,-16152.323,-16188.385,-16209.985,-16173.362,-16170.596,-16166.45,-16072.254,-15950.599,-15841.869,-15825.002,-15828.698,-15801.641,-15802.167,-15800.247
-15852.564,-15915.813,-15940.882,-15992.879,-16052.795,-16107.158,-16131.353,-16162.906,-16250.517,-16371.828,-16525.688,-16652.625,-16605.098,-16281.217,-15957.92,-15882.998,-15869.543,-15881.86,-15952.578,-16047.218,-16135.585,-16086.107,-16006.51,-15995.749,-16040.121
-16129.441,-16129.253,-16091.869,-16055.514,-16064.533,-16246.482,-16337.575,-16171.334,-15954.137,-15781.8125,-15718.642,-15776.912,-15836.849,-15913.339,-15993.331,-16038.192,-16070.1,-16023.404,-15998.61,-16048.03,-16064.782,-16085.293,-16130.326,-16201.594,-16270.967
-16305.872,-16279.613,-16142.481,-15987.368,-15886.551,-15905.661,-16082.789,-16263.435,-16258.3545,-16098.379,-16062.087,-16104.348,-16063.736,-16087.511,-16137.013,-16169.062,-16236.8125,-16222.226,-16067.935,-15874.553,-15785.653,-15783.204,-15809.222,-15919.951,-16090.193
-16235.207,-16316.326,-16291.068,-16190.148,-16153.333,-16114.732,-16003.758,-15947.716,-15922.278,-15949.206,-16029.323,-16090.618,-16147.638,-16089.92,-16010.66,-15959.199,-15864.942,-15898.251,-15937.807,-15912.237,-15942.565,-15944.223,-15948.726,-15976.954,-16032.861
-16142.315,-16194.997,-16163.474,-16124.887,-16127.959,-16159.898,-16194.447,-16224.04,-16252.358,-16240.886,-16261.942,-16373.487,-16251.22,-15932.142,-15830.273,-15833.167,-15820.169,-15891.167,-15936.013,-15926.193,-15942.63,-15949.321,-15945.371,-15961.7705,-15970.152
-15981.217,-16007.066,-16044.266,-16127.8,-16260.127,-16330.675,-16233.384,-16074.014,-15987.631,-16055.804,-16220.934,-16189.632,-16053.008,-16085.815,-16183.922,-16240.412,-16220.6875,-16182.963,-16148.515,-16014.028,-15893.727,-15840.477,-15814.386,-15861.571,-15947.412
-16050.283,-16105.155,-16040.827,-15937.571,-15901.035,-15914.954,-15935.305,-15997.407,-16055.714,-16092.525,-16148.641,-16177.479,-16157.11,-16121.527,-16118.356,-16095.001,-16057.763,-16057.944,-16019.703,-16029.977,-16073.132,-16018.051,-16016.6045,-16194.23,-16476.129
-16561.814,-16376.588,-16253.684,-16144.658,-15963.382,-15903.103,-15903.407,-15892.047,-15906.197,-15927.661,-15928.133,-15904.556,-15889.286,-15883.783,-15900.523,-15937.0205,-15978.433,-16004.151,-15998.253,-16018.583,-16038.178,-16036.596,-16065.873,-16099.409,-16161.799
-16263.459,-16317.684,-16316.589,-16277.121,-16191.735,-16105.158,-16035.23,-16017.8125,-16070.17,-16025.84,-15916.047,-15907.693,-15888.925,-15873.297,-15924.314,-15951.851,-15981.478,-16006.978,-16025.32,-16055.357,-16097.954,-16164.41,-16155.512,-16080.353,-16022.033
-15983.136,-16038.203,-16193.948,-16347.138,-16559.168,-16747.223,-16585.918,-16270.546,-16088.312,-15888.318,-15765.456,-15798.264,-15834.525,-15882.382,-15971.291,-16073.809,-16122.387,-16226.412,-16352.404,-16233.394,-16057.3955,-15991.368,-15976.246,-16012.999,-15980.759
-15918.484,-15925.547,-15940.214,-15958.917,-15994.018,-15996.624,-15979.11,-15985.538,-16005.621,-16051.942,-16096.928,-16096.809,-16121.761,-16168.768,-16143.728,-16081.166,-15992.033,-15871.3,-15825.477,-15827.771,-15847.734,-15909.186,-15960.35,-16060.107,-16225.111
-16347.691,-16345.733,-16265.361,-16236.406,-16176.205,-16061.705,-16040.598,-16040.478,-16040.445,-16119.461,-16162.434,-16186.464,-16315.039,-16386.55,-16254.775,-16083.494,-16020.09,-16044.507,-16146.826,-16212.712,-16113.763,-16004.911,-15954.266,-15874.402,-15852.177
-15880.259,-15889.474,-15928.312,-15961.202,-15966.536,-16006.297,-16127.704,-16279.62,-16311.492,-16181.822,-15984.276,-15865.115,-15878.843,-15920.121,-15965.992,-16035.001,-16089.564,-16181.676,-16334.5205,-16456.959,-16473.979,-16378.397,-16211.935,-16022.765,-15876.775
-15816.246,-15801.693,-15791.444,-15788.783,-15799.185,-15818.037,-15853.799,-15909.128,-15965.121,-16004.262,-16032.706,-16067.669,-16089.738,-16070.408,-16044.302,-16040.474,-16024.443,-16004.768,-16010.085,-16022.654,-16026.983,-16021.993,-16030.283,-16071.501,-16166.236
-16282.93,-16297.1875,-16226.203,-16227.108,-16293.825,-16291.491,-16215.243,-16134.478,-16031.294,-15934.879,-15904.308,-15938.072,-16094.658,-16263.64,-16224.897,-16132.99,-16145.06,-16111.702,-16030.088,-16020.948,-16099.507,-16180.081,-16140.865,-16032.6045,-15954.1875
-15907.42,-15865.072,-15871.135,-16009.004,-16107.536,-16068.608,-16082.379,-16134.603,-16054.9,-15939.249,-15928.399,-15921.192,-15922.634,-15952.546,-15945.149,-15937.562,-15925.173,-15920.494,-15914.79,-15942.16,-16032.688,-16122.509,-16232.767,-16256.088,-16148.262
-16048.191,-15975.664,-15958.46,-16001.011,-16022.584,-16064.181,-16124.948,-16107.582,-16133.784,-16224.541,-16235.157,-16193.2705,-16080.826,-15969.863,-15974.851,-16021.162,-16073.789,-16090.918,-16077.808,-16076.14,-16064.614,-16067.384,-16027.855,-15980.333,-16082.584
-16190.373,-16126.863,-15999.265,-15910.697,-15854.65,-15815.125,-15829.477,-15892.748,-15959.963,-16056.958,-16128.272,-16129.014,-16127.516,-16117.737,-16081.784,-16094.696,-16160.428,-16131.788,-16019.695,-15975.217,-15942.589,-15887.27,-15877.452,-15869.886,-15873.915
-15915.389,-15964.786,-16001.382,-15978.285,-15950.617,-15972.319,-16037.436,-16125.799,-16129.225,-16080.324,-16075.052,-16135.482,-16282.007,-16398.646,-16389.498,-16268.925,-16049.92,-15884.679,-15902.218,-15949.492,-15941.257,-15940.57,-15927.17,-15917.612,-15914.556
-15929.235,-15966.319,-15958.635,-15932.124,-15891.023,-15856.695,-15863.291,-15881.751,-15959.28,-16061.497,-16096.7295,-16072.84,-16074.65,-16148.863,-16176.442,-16134.558,-16127.514,-16177.748,-16267.955,-16296.329,-16246.777,-16181.695,-16042.553,-15894.547,-15817.443
-15779.892,-15812.038,-15906.516,-16023.065,-16070.839,-16002.721,-15945.846,-15938.347,-15928.685,-15929.918,-15930.857,-15929.017,-15958.539,-15989.193,-16004.493,-16033.205,-16072.133,-16084.433,-16034.369,-16000.059,-16017.7,-16035.389,-16089.332,-16159.944,-16210.4375
-16211.304,-16138.518,-16122.839,-16156.69,-16121.996,-16073.8955,-16063.232,-16104.935,-16146.028,-16090.213,-16016.86,-16002.976,-15982.618,-15920.846,-15857.15,-15824.8545,-15832.874,-15873.069,-15902.293,-15910.379,-15956.66,-16049.337,-16098.291,-16068.18,-16028.497
-16002.898,-15982.818,-15991.568,-16046.774,-16119.745,-16143.164,-16162.677,-16228.788,-16255.787,-16189.704,-16098.65,-16080.348,-16077.686,-16055.115,-15998.064,-15868.133,-15840.526,-15860.903,-15844.726,-15924.489,-15988.238,-16044.948,-16139.931,-16172.639,-16142.718
-16077.949,-16080.217,-16119.966,-16092.2,-16005.738,-15987.777,-16095.568,-16111.086,-16066.231,-16045.0205,-15952.934,-15916.423,-15928.142,-15931.453,-15966.1,-15972.297,-16018.696,-16183.144,-16397.305,-16411.752,-16133.041,-15886.802,-15790.41,-15799.786,-15877.247
-15887.104,-15900.72,-15922.538,-15937.371,-16016.658,-16119.526,-16241.9375,-16287.477,-16293.561,-16333.52,-16311.8,-16260.057,-16185.985,-16151.992,-16067.923,-15885.445,-15823.637,-15744.506,-15690.616,-15771.515,-15795.034,-15842.288,-15893.932,-15900.31,-15922.384
-15924.283,-15951.583,-15972.067,-15965.457,-15958.653,-15979.93,-16102.171,-16239.505,-16245.219,-16184.421,-16182.125,-16107.974,-15976.263,-15972.235,-16013.728,-16058.659,-16116.175,-16161.01,-16163.566,-16047.923,-15931.473,-15885.908,-15847.533,-15824.454,-15833.425
-15877.643,-15902.657,-15937.023,-15999.52,-16002.539,-15969.553,-15929.786,-15919.45,-15983.425,-16080.323,-16160.509,-16205.014,-16213.927,-16152.3955,-16079.084,-16059.279,-16020.336,-15965.287,-15954.579,-15977.758,-15975.871,-15959.456,-15960.974,-15956.417,-15969.217
-15987.702,-15998.45,-16074.26,-16226.882,-16315.874,-16270.859,-16211.284,-16118.39,-15969.368,-15928.245,-15960.658,-15948.407,-15941.628,-15947.308,-15938.278,-15938.804,-15959.494,-15980.8125,-16021.121,-16182.791,-16399.541,-16382.29,-16105.064,-15889.392,-15827.617
-15806.39,-15880.196,-16038.3125,-16168.041,-16156.812,-16024.494,-15997.722,-16054.795,-16027.629,-15960.753,-15907.832,-15874.785,-15887.202,-15911.566,-15906.208,-15905.495,-15946.732,-15997.458,-16022.817,-16063.566,-16092.567,-16062.265,-16040.234,-16073.102,-16168.804
-16268.363,-16327.894,-16326.375,-16221.108,-16102.743,-15982.8955,-15873.61,-15856.282,-15868.156,-15949.711,-16150.327,-16300.341,-16203.551,-15952.588,-15764.994,-15685.369,-15755.349,-15841.52,-15849.678,-15890.513,-15927.114,-15979.08,-16042.452,-16088.042,-16112.409
-16036.38,-15972.754,-16008.251,-16102.035,-16185.237,-16166.735,-16132.4375,-16146.358,-16179.626,-16227.283,-16198.221,-16082.128,-16005.491,-15976.31,-15975.44,-15973.897,-15911.479,-15908.608,-15935.028,-15893.112,-15883.402,-15866.532,-15854.548,-15885.495,-15918.403
-15944.963,-15919.896,-15912.726,-15907.246,-15892.2295,-15929.186,-15944.928,-15973.505,-16017.683,-16043.281,-16079.278,-16104.88,-16149.282,-16206.888,-16217.913,-16152.7295,-16055.35,-15980.313,-15908.653,-15874.389,-15894.931,-15926.718,-15970.299,-16021.128,-16132.367
-16341.907,-16443.857,-16355.819,-16241.063,-16071.092,-15917.825,-15933.335,-15994.944,-16022.847,-15965.516,-15864.714,-15825.404,-15828.535,-15890.496,-15945.192,-15979.323,-15982.738,-15935.898,-15935.748,-15898.441,-15846.676,-15870.343,-15898.045,-15947.85,-16027.361
-16120.371,-16234.161,-16386.69,-16533.686,-16507.36,-16306.82,-16113.572,-15990.243,-15890.062,-15797.334,-15733.514,-15717.983,-15734.686,-15779.335,-15829.678,-15847.224,-15862.271,-15885.917,-15927.58,-15980.736,-16030.65,-16132.299,-16228.917,-16256.083,-16250.127
-16221.533,-16177.745,-16059.022,-15906.114,-15870.152,-15937.178,-16053.393,-16161.288,-16232.888,-16302.387,-16300.751,-16158.496,-15962.904,-15846.335,-15805.404,-15815.73,-15840.773,-15890.181,-16030.767,-16075.95,-15974.533,-15890.013,-15857.243,-15891.56,-15929.406
-15950.323,-15962.672,-15931.992,-15913.709,-15917.081,-15917.122,-15913.927,-15914.071,-15919.263,-15914.655,-15908.428,-15907.259,-15918.016,-15944.0,-15981.848,-16051.861,-16124.075,-16124.784,-16103.127,-16096.384,-16067.044,-16080.4795,-16137.243,-16174.96,-16153.728
-16090.688,-16095.82,-16081.742,-15993.738,-15946.761,-15908.289,-15879.417,-15908.183,-15984.608,-16105.783,-16145.645,-16002.992,-15858.031,-15863.717,-15955.484,-16044.796,-16039.8125,-15996.809,-16004.074,-16042.475,-16142.055,-16196.375,-16185.153,-16179.912,-16049.099
-15861.202,-15798.61,-15823.897,-15846.588,-15855.01,-15874.247,-15900.525,-15946.894,-15997.649,-16011.21,-16007.494,-16014.661,-16036.289,-16075.129,-16135.706,-16223.23,-16289.99,-16233.282,-16114.402,-16032.22,-15945.945,-15890.869,-15855.123,-15834.079,-15895.005
-15953.938,-15984.253,-15986.599,-15954.787,-15949.084,-15939.964,-15921.228,-15904.595,-15893.816,-15882.009,-15867.423,-15916.743,-15982.8545,-15995.759,-15972.909,-15957.142,-15962.074,-15974.817,-16022.931,-16047.815,-16052.19,-16120.142,-16201.818,-16258.086,-16289.623
-16287.598,-16237.27,-16172.811,-16146.605,-16103.504,-16045.896,-15949.864,-15800.076,-15757.933,-15780.836,-15784.643,-15808.052,-15817.989,-15856.2295,-15886.936,-15927.217,-16037.787,-16088.751,-16084.414,-16130.737,-16204.678,-16130.044,-15972.894,-15925.254,-15864.234
-15830.118,-15856.922,-15866.483,-15920.27,-15944.755,-15955.095,-15989.632,-16011.226,-16096.004,-16253.79,-16345.212,-16207.514,-15991.856,-15888.651,-15818.339,-15797.177,-15842.919,-15876.337,-15871.812,-15882.145,-15933.126,-15985.14,-16100.93,-16227.222,-16251.429
-16242.194,-16192.792,-16074.578,-15983.318,-15997.095,-16044.05,-16030.1,-15962.412,-15853.327,-15791.182,-15789.579,-15788.014,-15822.228,-15850.46,-15881.718,-15930.203,-15952.103,-15977.959,-15981.78,-15977.091,-15977.493,-15974.073,-16045.599,-16191.775,-16243.682
-16097.119,-15963.357,-15940.823,-15952.9795,-16071.801,-16211.012,-16255.213,-16205.252,-16067.463,-15952.673,-15884.65,-15843.835,-15856.544,-15877.426,-15924.499,-15992.465,-15972.092,-15901.459,-15873.752,-15873.403,-15908.193,-15999.113,-16104.078,-16088.108,-15952.948
-15899.73,-15906.962,-15928.206,-15985.274,-15989.831,-15994.029,-15989.083,-15973.213,-15980.102,-15925.829,-15910.339,-15945.723,-16006.085,-16147.486,-16270.14,-16289.267,-16143.712,-15998.764,-15988.897,-15953.99,-15954.472,-15982.344,-15953.178,-16012.685,-16064.673
-16019.119,-15991.436,-15965.982,-15920.052,-15876.613,-15867.546,-15857.008,-15835.58,-15856.312,-15870.116,-15875.586,-15864.698,-15871.601,-15947.9375,-16017.179,-16073.026,-16081.866,-16031.514,-16001.8955,-16006.762,-16016.08,-15997.508,-15994.918,-16040.591,-16084.174
-16063.803,-16011.706,-16005.91,-15981.646,-15923.891,-15863.228,-15792.164,-15784.551,-15802.41,-15801.418,-15826.69,-15857.696,-15919.837,-16036.699,-16112.761,-16083.865,-16080.858,-16117.242,-16057.95,-16026.122,-16047.001,-16025.454,-16017.3,-16003.34,-16054.722
-16165.239,-16158.898,-16032.255,-15864.493,-15787.364,-15780.195,-15759.9795,-15809.903,-15869.284,-15885.33,-15891.202,-15885.065,-15890.488,-15887.974,-15885.901,-15897.311,-15904.1455,-15899.52,-15890.826,-15891.461,-15881.053,-15889.605,-15953.869,-16006.321,-15986.491
-15968.014,-15992.027,-16004.093,-16022.045,-16018.943,-16005.196,-16063.518,-16105.941,-16078.76,-16034.094,-15987.91,-16004.071,-16124.844,-16211.561,-16130.837,-15997.532,-15926.414,-15892.139,-15923.442,-15985.167,-15977.937,-15957.137,-15955.092,-15935.337,-15918.414
-15897.411,-15864.835,-15816.371,-15814.715,-15915.04,-16054.832,-16197.545,-16201.939,-16018.694,-15847.375,-15735.657,-15674.179,-15707.37,-15805.764,-15954.969,-16118.352,-16266.187,-16352.996,-16295.385,-16203.777,-16157.25,-16060.617,-15914.926,-15774.847,-15683.403
-15665.367,-15706.222,-15761.125,-15796.05,-15820.976,-15832.217,-15856.137,-15918.844,-15986.592,-16013.718,-15971.151,-15878.602,-15833.216,-15854.746,-15852.492,-15872.363,-15916.041,-15930.876,-15964.054,-15977.098,-16012.127,-16071.648,-16058.641,-16042.341,-16055.427
-16089.42,-16123.609,-16078.838,-15999.649,-15962.491,-15923.688,-15871.588,-15836.401,-15793.291,-15789.189,-15834.328,-15885.844,-15953.395,-15964.453,-15913.745,-15871.03,-15848.597,-15856.457,-15906.9795,-16009.677,-16064.739,-16021.895,-15953.002,-15860.364,-15796.412
-15791.798,-15807.217,-15849.592,-15875.009,-15881.048,-15901.917,-15911.604,-15924.765,-15951.185,-15966.12,-15968.242,-15948.384,-15918.874,-15919.384,-15911.528,-15896.156,-15967.234,-16066.754,-16101.172,-16123.722,-16132.175,-16080.6455,-16034.129,-16012.645,-15969.04
-15942.336,-15905.744,-15835.027,-15815.491,-15798.241,-15782.759,-15815.614,-15816.019,-15830.271,-15871.83,-15896.333,-15928.066,-15908.537,-15855.696,-15851.188,-15920.774,-16041.43,-16214.529,-16503.482,-16700.445,-16529.361,-16179.751,-15912.029,-15723.808,-15667.1
-15730.385,-15780.163,-15793.7,-15783.841,-15793.617,-15818.915,-15796.439,-15746.07,-15713.286,-15708.651,-15734.743,-15805.29,-15893.841,-15940.999,-15906.302,-15876.736,-15944.006,-16040.309,-16103.647,-16060.11,-15957.354,-15930.632,-15909.048,-15875.281,-15884.22
-15876.652,-15856.342,-15870.041,-15889.08,-15902.672,-15925.055,-15951.293,-16009.519,-16131.368,-16213.809,-16121.072,-15968.593,-15869.72,-15782.674,-15749.74,-15787.964,-15871.374,-15945.568,-15976.417,-15994.346,-15960.547,-15911.66,-15905.997,-15923.363,-15913.692
-15821.01,-15752.785,-15747.954,-15730.205,-15780.982,-15895.65,-16006.602,-16106.529,-16128.381,-16114.06,-16098.753,-16062.203,-16052.854,-16065.701,-16060.33,-15970.987,-15857.255,-15791.467,-15720.691,-15684.945,-15670.825,-15689.194,-15792.793,-15893.528,-15903.925
-15876.67,-15988.331,-16144.135,-16170.138,-16134.458,-16050.541,-15983.023,-15952.935,-15907.651,-15893.233,-15885.368,-15920.368,-16048.659,-16191.592,-16223.155,-16170.166,-16176.425,-16155.838,-16113.747,-16071.968,-15883.837,-15712.735,-15687.995,-15716.1455,-15762.73
-15783.7295,-15782.052,-15793.584,-15814.542,-15833.075,-15862.229,-15900.831,-15903.982,-15854.635,-15801.717,-15780.089,-15760.85,-15754.326,-15751.529,-15736.973,-15752.555,-15793.973,-15866.204,-15946.38,-15992.473,-16051.771,-16117.872,-16152.079,-16202.383,-16209.848
-16098.882,-15987.471,-15904.346,-15822.142,-15800.323,-15814.845,-15843.803,-15898.271,-15950.999,-15939.308,-15865.328,-15877.291,-15981.502,-16006.274,-15943.685,-15897.9795,-15915.987,-15990.802,-16010.134,-15956.436,-15946.143,-15936.884,-15906.425,-15898.8,-15859.72
-15810.69,-15778.609,-15759.087,-15777.7,-15800.098,-15816.172,-15836.672,-15898.873,-16016.329,-16082.129,-16080.594,-16062.296,-16045.985,-16038.756,-15985.954,-15917.483,-15880.176,-15870.498,-15939.062,-16020.99,-15998.346,-15924.533,-15916.489,-15947.251,-15909.506
-15817.876,-15763.936,-15771.772,-15759.8125,-15733.415,-15776.688,-15822.924,-15853.136,-15910.139,-15954.245,-15970.492,-15951.534,-15921.711,-15899.827,-15875.1,-15867.008,-15855.172,-15839.144,-15847.529,-15853.6,-15854.416,-15893.878,-15990.441,-16108.322,-16152.246
-16095.086,-16034.686,-16032.581,-16122.428,-16277.262,-16300.533,-16109.128,-15906.741,-15849.698,-15894.626,-15973.018,-16032.193,-16019.38,-15917.781,-15805.862,-15730.813,-15672.709,-15682.684,-15716.542,-15741.607,-15779.502,-15782.901,-15836.201,-15910.354,-15898.148
-15899.114,-15917.748,-15939.462,-16049.051,-16109.204,-15997.013,-15884.319,-15829.73,-15791.197,-15812.776,-15848.37,-15892.535,-15978.044,-16087.508,-16195.903,-16214.495,-16096.702,-15938.353,-15868.604,-15868.282,-15890.606,-15923.637,-15909.439,-15867.482,-15817.127
-15801.343,-15814.66,-15785.949,-15784.794,-15792.69,-15799.305,-15831.496,-15849.953,-15906.413,-15961.916,-15966.591,-15916.511,-15837.704,-15781.32,-15738.312,-15753.007,-15781.667,-15837.184,-15955.959,-16050.035,-16143.49,-16154.586,-16063.032,-16015.116,-15993.912
-15996.273,-15995.97,-15941.736,-15876.53,-15787.4,-15725.073,-15737.35,-15770.345,-15792.744,-15791.313,-15816.249,-15847.954,-15875.743,-15942.684,-15975.719,-16016.902,-16115.614,-16179.498,-16119.358,-15974.999,-15889.297,-15816.074,-15754.084,-15776.829,-15799.475
-15825.644,-15854.972,-15862.9795,-15884.153,-15890.8955,-15897.049,-15918.235,-15919.772,-15912.049,-15907.559,-15895.764,-15899.901,-15924.732,-15936.269,-15948.376,-15957.148,-15965.577,-16037.611,-16166.431,-16284.639,-16254.45,-16019.625,-15838.957,-15821.855,-15812.323
-15820.773,-15823.384,-15798.318,-15814.939,-15813.272,-15814.275,-15843.251,-15861.907,-15883.08,-15885.36,-15890.603,-15935.185,-16030.152,-16122.789,-16139.673,-16048.413,-15860.91,-15744.447,-15728.968,-15722.964,-15760.9,-15817.6455,-15861.667,-15885.253,-15894.363
-15919.412,-15925.746,-15904.805,-15889.401,-15916.3125,-16007.429,-16069.767,-15970.434,-15827.306,-15786.3955,-15772.4375,-15782.552,-15817.719,-15871.589,-15926.604,-15916.827,-15925.072,-15972.536,-16078.02,-16212.809,-16179.393,-16014.519,-15879.335,-15813.449,-15855.296
-16067.976,-16275.965,-16222.4,-16110.715,-16089.025,-15930.833,-15738.814,-15687.653,-15665.699,-15702.986,-15778.675,-15795.605,-15804.601,-15816.9375,-15843.926,-15870.105,-15871.664,-15825.414,-15723.015,-15667.924,-15681.419,-15726.599,-15816.469,-15961.721,-16014.921
-15905.477,-15824.26,-15788.632,-15798.034,-15863.271,-15895.629,-15935.243,-15953.724,-15942.009,-15933.05,-15919.345,-15927.151,-15914.083,-15880.567,-15849.303,-15845.278,-15851.664,-15804.208,-15781.164,-15803.196,-15837.257,-15909.762,-15990.091,-16060.352,-16134.861
-16215.31,-16228.631,-16121.129,-15996.489,-15928.206,-15894.301,-15873.966,-15827.714,-15748.325,-15669.766,-15611.78,-15622.857,-15683.46,-15712.029,-15752.865,-15816.401,-15854.021,-15909.289,-15952.665,-15960.452,-15983.378,-15969.159,-15905.858,-15860.386,-15843.096
-15867.319,-15909.363,-15907.063,-15890.693,-15900.308,-15927.948,-15986.6045,-16059.894,-16059.515,-15946.165,-15820.284,-15756.809,-15733.735,-15737.556,-15776.481,-15840.567,-15888.911,-15926.66,-15979.126,-16004.239,-15969.696,-15947.367,-15937.688,-15865.01,-15801.743
-15744.879,-15687.223,-15724.413,-15787.11,-15849.588,-15930.473,-15968.017,-15957.284,-15938.111,-15951.081,-15974.351,-15989.619,-15974.64,-15922.58,-15888.182,-15870.55,-15864.574,-15822.705,-15749.784,-15730.451,-15730.65,-15739.358,-15758.101,-15775.879,-15799.106
-15809.541,-15852.309,-15945.132,-16088.847,-16181.476,-16110.512,-16065.367,-16059.948,-15949.973,-15891.4795,-15891.125,-15862.961,-15898.108,-15948.475,-15963.828,-15943.957,-15881.546,-15859.875,-15884.992,-15903.245,-15858.551,-15787.433,-15808.274,-15861.558,-15836.798
-15766.708,-15742.527,-15746.423,-15739.148,-15759.774,-15789.022,-15826.223,-15873.1045,-15919.731,-15960.924,-15956.318,-15988.595,-16052.519,-16018.222,-15897.389,-15804.851,-15848.815,-15880.104,-15785.316,-15737.711,-15734.693,-15743.248,-15786.248,-15800.747,-15861.814
-15929.97,-15920.766,-15992.807,-16129.281,-16110.831,-15960.584,-15845.138,-15771.821,-15745.661,-15767.734,-15786.048,-15842.432,-15948.325,-16095.761,-16181.049,-16100.911,-15989.326,-15926.306,-15862.6045,-15771.69,-15730.341,-15742.2,-15738.768,-15811.909,-15890.888
-15884.618,-15894.729,-15895.898,-15839.615,-15784.999,-15771.428,-15739.092,-15714.055,-15752.438,-15782.085,-15835.962,-15919.745,-15927.991,-15864.705,-15872.84,-15983.796,-16061.352,-16128.771,-16139.887,-16062.3955,-16034.899,-15981.472,-15931.879,-15914.945,-15807.711
-15721.85,-15693.93,-15698.829,-15749.082,-15765.282,-15796.308,-15821.35,-15751.678,-15700.014,-15707.904,-15711.93,-15711.094,-15707.767,-15723.371,-15745.988,-15768.757,-15809.322,-15823.034,-15839.267,-15868.276,-15874.649,-15898.997,-15913.565,-15921.454,-15958.8
-15965.819,-15913.316,-15846.195,-15820.341,-15816.235,-15834.7,-15917.526,-16013.495,-16068.039,-16039.488,-15980.647,-15986.702,-15934.487,-15825.749,-15799.084,-15780.361,-15788.81,-15832.725,-15848.266,-15942.056,-16046.201,-16050.526,-15996.568,-15885.7295,-15764.763
-15681.875,-15662.143,-15696.147,-15765.331,-15877.807,-15947.662,-15953.56,-15935.879,-15878.657,-15845.209,-15874.99,-15902.98,-15911.346,-15923.293,-15932.955,-15944.242,-15963.444,-15946.111,-15867.988,-15780.829,-15728.341,-15716.646,-15736.993,-15756.9,-15766.303
-15785.129,-15801.91,-15808.375,-15817.343,-15826.871,-15843.851,-15872.36,-15937.736,-16053.925,-16097.546,-15995.172,-15916.5625,-15961.608,-15991.501,-15962.523,-15941.612,-15908.654,-15861.073,-15812.652,-15761.984,-15750.207,-15793.713,-15848.533,-15871.061,-15858.914
-15832.28,-15808.163,-15779.817,-15749.957,-15740.503,-15746.015,-15757.183,-15773.84,-15802.564,-15839.116,-15869.009,-15912.312,-15998.705,-16085.909,-16076.206,-16000.7295,-15971.949,-15956.106,-15896.898,-15844.701,-15816.262,-15805.378,-15833.117,-15856.279,-15857.79
-15930.038,-16056.259,-16080.417,-16009.192,-15947.572,-15866.129,-15755.156,-15709.157,-15774.032,-15874.694,-15911.733,-15878.72,-15843.193,-15836.965,-15866.451,-15914.203,-15909.779,-15880.927,-15845.799,-15787.386,-15774.197,-15806.588,-15867.396,-15902.378,-15856.6875
-15823.38,-15852.527,-15890.091,-15906.07,-15913.05,-15922.873,-15954.599,-15969.622,-15959.051,-16001.105,-16014.469,-15940.788,-15894.4,-15925.92,-15980.281,-15940.7705,-15808.782,-15731.67,-15716.752,-15717.643,-15768.986,-15821.608,-15857.232,-15885.765,-15870.068
-15852.48,-15834.748,-15817.671,-15817.272,-15815.854,-15845.826,-15886.974,-15910.3955,-15913.88,-15905.024,-15912.228,-15953.776,-16042.827,-16075.221,-15985.748,-15893.484,-15869.138,-15873.796,-15855.734,-15814.738,-15796.715,-15817.465,-15838.573,-15817.82,-15794.799
-15795.755,-15783.066,-15777.491,-15769.039,-15744.029,-15744.073,-15754.385,-15774.436,-15796.068,-15816.164,-15850.302,-15859.086,-15884.812,-15939.8125,-15946.148,-15925.813,-15923.645,-15949.265,-16014.041,-16083.456,-16094.133,-16085.79,-16087.858,-16012.24,-15909.438
-15826.072,-15757.141,-15797.892,-15822.345,-15774.214,-15800.875,-15849.84,-15890.931,-15873.903,-15808.148,-15830.678,-15834.623,-15820.63,-15817.252,-15763.33,-15787.984,-15831.17,-15837.374,-15843.412,-15804.743,-15794.015,-15786.45,-15784.725,-15822.136,-15837.017
-15870.006,-15920.506,-15979.085,-16093.635,-16220.389,-16270.763,-16329.965,-16352.597,-16120.614,-15888.582,-15795.545,-15674.706,-15633.97,-15628.032,-15626.896,-15680.887,-15700.341,-15734.794,-15759.281,-15762.518,-15787.417,-15805.232,-15859.529,-15931.881,-15954.592
-15886.644,-15820.297,-15841.324,-15866.451,-15873.287,-15876.115,-15880.341,-15864.307,-15844.046,-15858.164,-15858.421,-15861.424,-15882.936,-15921.632,-15937.261,-15899.769,-15900.142,-15896.619,-15847.422,-15810.132,-15780.277,-15760.622,-15770.034,-15828.812,-15897.108
-15950.55,-15973.437,-15935.804,-15933.632,-15938.338,-15904.685,-15910.373,-15877.96,-15850.522,-15928.408,-15962.703,-15916.818,-15899.045,-15873.307,-15810.976,-15788.8955,-15785.235,-15780.395,-15819.944,-15852.978,-15884.256,-15957.545,-16001.85,-16002.678,-15981.32
-15897.223,-15810.6,-15771.308,-15741.507,-15755.554,-15793.487,-15812.433,-15833.88,-15852.591,-15847.293,-15804.271,-15793.191,-15829.503,-15836.416,-15818.967,-15811.637,-15876.384,-15991.461,-16017.915,-15964.149,-15906.03,-15839.886,-15811.143,-15824.28,-15830.668
-15855.238,-15860.23,-15842.742,-15828.683,-15774.995,-15753.445,-15767.167,-15771.824,-15795.973,-15802.747,-15814.831,-15833.216,-15834.894,-15843.987,-15849.422,-15897.899,-15983.266,-16055.02,-16119.156,-16185.298,-16251.647,-16215.662,-16068.984,-15949.317,-15857.358
-15769.003,-15704.793,-15645.67,-15632.084,-15667.79,-15730.555,-15875.688,-16030.879,-16059.157,-15979.686,-15883.937,-15820.897,-15770.658,-15707.926,-15671.978,-15682.106,-15704.46,-15736.138,-15810.098,-15904.585,-15910.169,-15847.017,-15831.941,-15833.8,-15832.699
-15859.1,-15898.981,-15966.768,-16043.001,-16041.906,-15971.034,-15888.219,-15784.383,-15738.327,-15749.003,-15732.344,-15799.745,-15910.073,-15907.535,-15892.199,-15968.069,-16002.974,-15914.825,-15851.676,-15828.986,-15807.535,-15818.769,-15808.877,-15811.198,-15793.009
-15741.713,-15777.335,-15828.768,-15828.771,-15813.936,-15809.457,-15822.255,-15838.077,-15906.463,-16004.62,-16035.03,-15990.472,-15904.358,-15800.689,-15741.818,-15737.652,-15727.26,-15752.632,-15804.144,-15853.919,-15942.767,-15967.282,-15921.437,-15884.676,-15821.758
-15769.675,-15758.9375,-15740.27,-15728.1,-15746.412,-15755.134,-15769.728,-15796.241,-15799.378,-15810.057,-15822.06,-15832.352,-15851.447,-15856.926,-15860.179,-15851.734,-15840.888,-15844.604,-15853.752,-15883.266,-15898.017,-15883.694,-15911.587,-15995.804,-16084.684
-16132.257,-16100.666,-16025.859,-15997.221,-15986.444,-15916.663,-15822.682,-15774.369,-15778.398,-15764.621,-15719.858,-15701.609,-15701.832,-15715.008,-15727.44,-15723.995,-15733.909,-15746.421,-15746.095,-15746.086,-15757.065,-15765.103,-15776.171,-15801.471,-15833.91
-15872.921,-15880.027,-15875.559,-15881.796,-15873.211,-15868.203,-15868.084,-15901.95,-15938.942,-15906.253,-15869.868,-15873.496,-15872.674,-15844.841,-15810.531,-15787.749,-15774.056,-15778.332,-15800.743,-15849.761,-15919.553,-15949.532,-15927.725,-15918.193,-15945.708
-15962.1045,-15942.136,-15933.807,-15967.851,-16029.966,-16050.27,-15962.64,-15884.158,-15858.284,-15777.062,-15709.39,-15701.023,-15678.505,-15651.077,-15656.986,-15692.228,-15735.016,-15807.927,-15906.529,-15943.121,-15894.618,-15832.723,-15777.819,-15740.399,-15743.625
-15745.633,-15771.434,-15819.581,-15816.441,-15809.988,-15865.977,-15963.081,-16002.551,-15942.45,-15886.247,-15899.033,-15924.667,-15898.593,-15841.106,-15782.3955,-15752.682,-15747.725,-15734.07,-15761.455,-15797.436,-15806.352,-15816.813,-15821.159,-15829.696,-15806.245
-15810.116,-15848.49,-15816.968,-15805.024,-15844.273,-15865.196,-15867.371,-15874.812,-15882.45,-15871.811,-15885.685,-15875.804,-15843.02,-15883.819,-15917.013,-15871.063,-15801.328,-15745.668,-15715.899,-15736.114,-15772.323,-15766.997,-15764.961,-15775.104,-15769.636
-15773.1045,-15782.197,-15786.938,-15784.529,-15791.172,-15813.243,-15825.868,-15833.349,-15831.279,-15829.863,-15843.996,-15873.639,-15932.048,-15948.938,-15907.994,-15910.289,-15932.103,-15906.172,-15877.588,-15869.952,-15844.66,-15849.513,-15922.656,-15974.432,-16003.294
-16055.902,-16074.209,-15992.934,-15832.359,-15733.62,-15760.102,-15786.462,-15726.849,-15671.887,-15702.09,-15758.592,-15828.014,-15918.289,-15985.943,-15966.009,-15861.998,-15817.458,-15788.437,-15723.749,-15721.495,-15720.78,-15726.454,-15753.769,-15770.625,-15808.53
-15820.207,-15827.368,-15838.782,-15823.065,-15818.043,-15825.491,-15843.758,-15853.735,-15861.146,-15876.366,-15867.118,-15836.715,-15801.968,-15775.107,-15762.145,-15773.778,-15786.558,-15787.262,-15807.46,-15829.601,-15839.229,-15863.397,-15947.21,-16053.831,-16070.967
-16020.054,-15972.165,-15914.608,-15858.451,-15831.078,-15818.467,-15834.152,-15859.669,-15823.272,-15770.228,-15750.715,-15745.546,-15771.115,-15787.611,-15784.343,-15792.482,-15788.257,-15807.139,-15855.396,-15883.013,-15874.93,-15833.775,-15819.396,-15859.242,-15884.359
-15857.751,-15828.102,-15804.251,-15769.314,-15775.478,-15800.196,-15841.521,-15966.19,-16130.732,-16231.78,-16135.343,-15934.513,-15824.44,-15765.377,-15757.68,-15736.23,-15666.091,-15664.01,-15684.247,-15710.872,-15729.19,-15756.15,-15856.416,-15883.106,-15815.714
-15769.403,-15738.684,-15721.017,-15726.864,-15762.627,-15829.068,-15853.739,-15803.47,-15778.273,-15785.939,-15785.653,-15811.924,-15828.893,-15846.222,-15898.383,-15958.237,-16025.05,-16044.508,-16045.1455,-16091.423,-16033.725,-15867.222,-15758.895,-15690.608,-15661.828
-15679.952,-15682.727,-15694.544,-15712.015,-15740.023,-15777.016,-15789.361,-15805.032,-15805.001,-15786.071,-15773.534,-15777.415,-15810.898,-15847.048,-15889.86,-15931.458,-15920.76,-15866.3,-15839.512,-15834.156,-15805.232,-15796.952,-15795.737,-15782.534,-15797.781
-15836.696,-15902.634,-15964.178,-15966.097,-15938.616,-15919.67,-15878.073,-15814.981,-15763.592,-15730.852,-15724.663,-15723.44,-15725.619,-15731.221,-15735.881,-15755.231,-15768.603,-15787.098,-15797.004,-15786.357,-15791.638,-15795.283,-15803.871,-15820.147,-15808.773
-15780.987,-15760.191,-15749.189,-15749.725,-15770.233,-15817.296,-15890.033,-15966.36,-16016.621,-16046.195,-16078.995,-16085.464,-16032.984,-16001.866,-16045.493,-16022.197,-15850.219,-15700.757,-15686.177,-15770.849,-15846.028,-15769.699,-15664.378,-15681.042,-15777.521
-15885.211,-15870.799,-15771.95,-15689.321,-15642.207,-15680.952,-15726.58,-15771.797,-15825.149,-15830.964,-15837.305,-15862.757,-15905.356,-15906.095,-15858.4795,-15838.746,-15814.652,-15761.999,-15725.015,-15719.279,-15730.485,-15769.6,-15787.173,-15773.485,-15786.795
-15790.514,-15784.981,-15789.835,-15810.958,-15838.667,-15833.514,-15841.113,-15900.0,-15942.248,-15890.546,-15847.93,-15870.987,-15834.615,-15800.506,-15817.806,-15808.088,-15832.908,-15882.206,-15868.452,-15833.306,-15810.179,-15780.335,-15775.279,-15786.889,-15766.978
-15752.465,-15755.646,-15770.721,-15795.166,-15798.037,-15818.185,-15835.107,-15845.366,-15861.941,-15830.635,-15829.708,-15850.309,-15850.63,-15872.16,-15865.723,-15845.632,-15814.593,-15765.799,-15756.849,-15804.867,-15841.026,-15775.222,-15708.663,-15700.691,-15690.206
-15716.787,-15771.367,-15818.376,-15854.582,-15877.048,-15891.264,-15868.927,-15840.703,-15838.025,-15826.295,-15825.421,-15848.96,-15853.387,-15815.576,-15766.359,-15731.909,-15699.826,-15688.686,-15696.8,-15726.468,-15829.325,-15956.925,-15982.637,-15881.881,-15769.777
-15715.1,-15707.457,-15759.662,-15857.385,-15968.832,-15992.248,-15915.666,-15893.304,-15887.531,-15844.579,-15814.631,-15766.009,-15727.41,-15705.502,-15685.984,-15693.99,-15706.214,-15719.253,-15723.655,-15755.29,-15856.749,-15960.104,-15995.752,-15969.853,-15897.623
-15793.583,-15750.179,-15746.851,-15734.201,-15776.2,-15830.224,-15893.95,-15939.368,-15900.1045,-15857.876,-15814.396,-15777.942,-15773.348,-15779.063,-15853.511,-15955.376,-15973.809,-15900.916,-15819.872,-15767.456,-15715.088,-15691.804,-15694.234,-15720.325,-15801.997
-15914.967,-15975.946,-15937.321,-15873.328,-15788.09,-15703.996,-15713.183,-15772.086,-15822.923,-15822.621,-15823.551,-15865.579,-15852.459,-15822.053,-15792.084,-15752.353,-15769.968,-15826.559,-15887.1045,-15882.887,-15835.081,-15843.46,-15847.522,-15802.012,-15750.94
-15725.995,-15719.77,-15746.979,-15817.943,-15833.515,-15802.529,-15793.341,-15767.447,-15740.975,-15736.097,-15730.63,-15743.163,-15788.169,-15828.192,-15842.033,-15842.431,-15844.742,-15859.338,-15861.543,-15854.901,-15843.906,-15811.6455,-15785.099,-15786.1875,-15811.889
-15821.061,-15804.733,-15801.544,-15807.402,-15839.229,-15916.729,-16005.914,-16078.78,-16083.974,-15970.683,-15833.845,-15771.518,-15752.904,-15758.397,-15761.277,-15736.656,-15701.204,-15680.45,-15705.97,-15747.0,-15756.884,-15734.126,-15720.732,-15745.03,-15774.623
-15780.356,-15761.719,-15788.076,-15833.56,-15813.855,-15805.119,-15816.539,-15836.645,-15863.177,-15832.245,-15812.508,-15803.683,-15765.631,-15754.053,-15749.801,-15750.813,-15762.638,-15762.768,-15767.599,-15776.546,-15776.604,-15784.096,-15826.134,-15880.92,-15919.669
-15940.533,-15940.177,-15951.517,-15972.713,-15974.927,-16047.047,-16145.881,-16037.227,-15834.51,-15762.997,-15715.24,-15651.403,-15614.751,-15605.341,-15645.377,-15682.957,-15713.98,-15757.221,-15815.662,-15862.574,-15832.244,-15775.462,-15754.417,-15759.573,-15761.592
-15815.346,-15937.009,-15967.052,-15889.354,-15807.398,-15757.237,-15737.092,-15721.076,-15710.321,-15716.359,-15740.368,-15744.897,-15735.574,-15740.382,-15735.441,-15740.091,-15760.403,-15794.033,-15828.929,-15862.477,-15917.248,-15912.09,-15852.028,-15832.178,-15824.3545
-15817.586,-15829.042,-15829.607,-15813.56,-15786.695,-15775.571,-15784.261,-15796.8955,-15815.236,-15785.429,-15733.864,-15705.58,-15672.59,-15670.627,-15677.825,-15699.954,-15753.738,-15764.18,-15770.633,-15797.584,-15812.131,-15825.871,-15837.605,-15843.076,-15838.309
-15847.591,-15852.546,-15833.368,-15826.342,-15812.502,-15784.751,-15769.454,-15780.627,-15810.537,-15846.038,-15914.833,-16016.794,-16069.168,-15980.76,-15850.442,-15824.524,-15839.242,-15849.816,-15864.716,-15844.727,-15842.849,-15888.371,-15901.552,-15893.918,-15886.686
-15858.063,-15846.595,-15764.744,-15632.533,-15614.083,-15650.867,-15712.025,-15746.188,-15730.93,-15788.6455,-15816.109,-15762.45,-15731.937,-15749.802,-15811.425,-15847.707,-15812.962,-15767.313,-15772.961,-15766.27,-15735.826,-15731.553,-15711.618,-15705.471,-15716.574
-15753.421,-15868.231,-15958.504,-15934.7,-15856.69,-15814.557,-15785.222,-15753.705,-15796.431,-15889.552,-15948.291,-15961.976,-15943.896,-15888.402,-15815.655,-15732.547,-15681.025,-15676.784,-15652.392,-15659.708,-15683.46,-15683.144,-15711.633,-15725.111,-15744.583
-15769.072,-15771.555,-15787.076,-15789.27,-15799.502,-15817.38,-15823.97,-15833.448,-15859.841,-15901.116,-15891.601,-15864.358,-15861.035,-15869.49,-15916.679,-15954.286,-15992.192,-16060.242,-16017.108,-15860.336,-15754.985,-15705.579,-15682.881,-15692.067,-15701.516
-15713.776,-15707.393,-15688.721,-15690.378,-15706.195,-15723.403,-15713.688,-15705.807,-15712.735,-15709.136,-15724.991,-15751.384,-15760.6875,-15787.265,-15834.949,-15834.101,-15804.663,-15813.188,-15819.326,-15819.777,-15832.273,-15835.805,-15853.784,-15900.809,-15965.77
-16008.914,-16001.189,-15964.826,-15932.118,-15930.692,-15912.065,-15862.403,-15843.611,-15808.7,-15738.266,-15691.303,-15681.864,-15700.319,-15714.589,-15730.184,-15738.946,-15723.062,-15715.556,-15720.399,-15748.916,-15770.869,-15747.671,-15718.404,-15712.861,-15731.531
-15737.215,-15733.215,-15752.076,-15799.94,-15899.934,-15982.326,-15983.153,-15996.388,-16020.709,-15952.202,-15845.835,-15768.105,-15714.946,-15700.07,-15695.208,-15691.756,-15700.761,-15718.307,-15724.478,-15709.375,-15711.824,-15716.231,-15717.967,-15742.827,-15782.782
-15839.871,-15884.238,-15888.931,-15870.893,-15867.689,-15869.137,-15827.105,-15779.451,-15762.054,-15756.657,-15783.049,-15869.278,-15948.129,-15941.489,-15895.39,-15819.49,-15755.249,-15801.106,-15842.741,-15821.903,-15797.079,-15737.832,-15707.747,-15745.941,-15778.387
-15770.805,-15757.512,-15767.573,-15765.292,-15774.981,-15788.791,-15769.131,-15753.665,-15758.407,-15815.104,-15880.928,-15943.674,-15994.757,-15896.045,-15749.6,-15695.456,-15690.892,-15718.64,-15735.037,-15739.579,-15751.669,-15774.199,-15814.205,-15824.537,-15805.781
-15783.522,-15760.4375,-15733.311,-15706.455,-15696.969,-15690.569,-15694.753,-15710.813,-15738.015,-15806.011,-15886.375,-15949.602,-15986.811,-15968.379,-15935.48,-15969.372,-16044.999,-16135.768,-16238.731,-16220.384,-16041.825,-15828.385,-15664.884,-15581.865,-15544.107
-15539.522,-15562.424,-15581.491,-15601.265,-15605.733,-15625.644,-15660.47,-15670.594,-15688.872,-15699.179,-15695.473,-15707.745,-15731.276,-15758.121,-15773.855,-15780.604,-15783.194,-15789.024,-15807.788,-15836.301,-15864.964,-15891.947,-15929.624,-15932.665,-15884.658
-15851.92,-15835.0,-15821.959,-15823.838,-15819.96,-15821.07,-15821.816,-15839.189,-15927.887,-16013.627,-16005.587,-15939.398,-15885.088,-15825.535,-15756.05,-15750.816,-15763.235,-15771.501,-15802.972,-15786.545,-15761.642,-15749.049,-15703.551,-15683.239,-15681.288
-15674.363,-15684.047,-15688.208,-15705.778,-15742.471,-15771.941,-15792.929,-15797.668,-15806.479,-15816.5,-15833.899,-15875.443,-15879.066,-15857.149,-15876.3545,-15926.482,-15951.174,-15915.431,-15898.012,-15945.231,-15954.963,-15870.352,-15777.281,-15725.586,-15657.044
-15625.469,-15679.583,-15713.7,-15735.538,-15792.09,-15818.328,-15796.686,-15777.001,-15764.162,-15749.677,-15756.049,-15755.346,-15748.125,-15754.657,-15760.701,-15768.799,-15755.125,-15757.503,-15790.485,-15800.469,-15801.342,-15818.829,-15879.586,-15944.763,-15979.285
-16002.064,-15965.079,-15886.257,-15835.746,-15809.773,-15799.659,-15812.53,-15816.151,-15799.085,-15801.369,-15801.227,-15777.649,-15753.103,-15724.9795,-15697.843,-15697.891,-15724.766,-15730.973,-15737.709,-15802.015,-15900.317,-15982.944,-16005.362,-15947.264,-15844.215
-15783.792,-15771.895,-15787.28,-15860.151,-15888.664,-15840.105,-15811.336,-15805.139,-15807.314,-15802.461,-15801.188,-15824.55,-15831.644,-15807.889,-15805.849,-15859.941,-15890.049,-15854.2295,-15835.086,-15807.096,-15742.223,-15740.447,-15747.711,-15730.322,-15765.73
-15772.988,-15759.492,-15769.092,-15762.377,-15778.911,-15783.573,-15769.887,-15764.118,-15745.256,-15763.759,-15793.193,-15811.569,-15842.687,-15850.918,-15861.711,-15863.378,-15826.783,-15805.037,-15806.89,-15850.11,-15919.233,-15915.924,-15866.179,-15829.57,-15777.792
-15741.094,-15740.133,-15733.663,-15725.654,-15723.14,-15721.726,-15735.79,-15750.133,-15749.744,-15759.481,-15778.482,-15784.044,-15782.104,-15783.081,-15783.959,-15785.681,-15807.649,-15851.65,-15891.117,-15908.784,-15885.774,-15830.76,-15818.432,-15851.857,-15860.463
-15901.919,-15982.179,-15991.293,-15952.584,-15884.896,-15800.786,-15762.079,-15742.349,-15736.669,-15744.484,-15749.195,-15778.277,-15823.647,-15851.612,-15855.799,-15871.285,-15870.542,-15802.84,-15734.574,-15709.138,-15707.864,-15735.58,-15771.621,-15777.845,-15772.686
-15781.137,-15784.831,-15779.657,-15770.075,-15767.251,-15775.2,-15788.333,-15806.723,-15814.83,-15833.252,-15847.85,-15832.567,-15819.859,-15805.209,-15795.708,-15787.491,-15787.828,-15832.746,-15882.318,-15914.384,-15917.057,-15914.486,-15945.376,-15952.716,-15950.019
-15986.201,-16050.499,-16072.413,-15998.493,-15904.3545,-15797.124,-15728.907,-15774.894,-15800.978,-15774.701,-15751.021,-15719.069,-15698.184,-15708.722,-15719.351,-15704.72,-15722.333,-15727.279,-15693.389,-15710.1455,-15730.097,-15724.84,-15740.31,-15773.308,-15797.853
-15837.417,-15950.396,-16047.29,-16055.066,-16071.356,-16094.191,-16035.461,-15925.048,-15783.723,-15668.677,-15671.976,-15698.127,-15708.6875,-15713.567,-15687.032,-15690.263,-15684.447,-15681.041,-15706.753,-15706.574,-15720.697,-15756.221,-15813.0205,-15845.63,-15811.186
-15781.179,-15774.557,-15779.632,-15775.026,-15770.165,-15786.539,-15797.221,-15821.644,-15881.387,-15911.27,-15861.927,-15825.319,-15836.763,-15835.792,-15821.014,-15795.241,-15787.934,-15811.508,-15840.126,-15823.792,-15764.747,-15766.316,-15786.355,-15789.684,-15828.967
-15873.497,-15921.134,-15923.24,-15889.745,-15891.403,-15848.527,-15764.386,-15718.638,-15703.665,-15722.87,-15757.991,-15756.656,-15743.882,-15743.913,-15745.336,-15767.758,-15795.141,-15834.028,-15878.052,-15878.792,-15876.829,-15862.663,-15808.543,-15774.284,-15759.524
-15756.558,-15779.267,-15805.802,-15817.26,-15815.337,-15853.016,-15936.135,-16007.107,-16017.63,-15945.854,-15892.728,-15892.687,-15885.113,-15894.197,-15892.25,-15876.637,-15867.847,-15847.471,-15829.826,-15768.136,-15709.558,-15697.003,-15678.212,-15692.468,-15701.574
-15694.738,-15706.001,-15704.378,-15708.897,-15710.542,-15730.614,-15765.714,-15797.374,-15850.76,-15878.916,-15875.795,-15847.431,-15822.505,-15821.085,-15810.951,-15831.645,-15873.399,-15908.55,-15930.482,-15944.874,-15956.012,-15911.008,-15866.608,-15849.035,-15811.234
-15781.678,-15746.656,-15705.998,-15678.638,-15676.354,-15716.769,-15756.619,-15786.466,-15816.003,-15851.793,-15898.615,-15914.072,-15929.794,-15972.826,-15995.643,-15972.239,-15907.428,-15839.844,-15760.323,-15697.525,-15697.724,-15693.691,-15694.167,-15723.446,-15753.952
-15779.285,-15771.075,-15768.378,-15778.177,-15767.15,-15766.9795,-15769.259,-15762.269,-15740.394,-15719.153,-15718.99,-15717.927,-15735.322,-15761.811,-15785.786,-15819.105,-15844.053,-15864.304,-15880.401,-15914.447,-15946.499,-15953.044,-15981.823,-15989.565,-15956.996
-15899.121,-15804.209,-15754.197,-15725.34,-15686.246,-15691.019,-15687.388,-15720.757,-15795.649,-15797.876,-15774.016,-15762.32,-15755.138,-15766.627,-15815.809,-15934.119,-16017.821,-15968.138,-15901.054,-15906.524,-15924.354,-15923.405,-15863.488,-15784.587,-15765.008
-15722.428,-15713.707,-15765.8545,-15758.413,-15745.683,-15729.133,-15688.164,-15679.088,-15689.032,-15708.168,-15716.242,-15721.742,-15743.707,-15747.094,-15737.618,-15746.985,-15770.348,-15807.381,-15835.066,-15810.71,-15797.655,-15825.121,-15842.045,-15851.19,-15830.096
-15797.668,-15806.185,-15822.161,-15807.235,-15790.115,-15803.618,-15825.118,-15872.247,-15958.822,-16063.743,-16138.937,-16071.525,-15893.775,-15754.295,-15708.887,-15704.705,-15725.397,-15819.29,-15864.823,-15800.08,-15762.684,-15741.057,-15696.306,-15695.353,-15732.924
-15754.809,-15731.476,-15699.248,-15689.372,-15687.618,-15734.041,-15782.677,-15770.97,-15777.009,-15791.97,-15790.836,-15820.088,-15854.023,-15850.834,-15820.352,-15806.592,-15813.977,-15845.273,-15900.961,-15913.751,-15870.561,-15814.818,-15753.844,-15686.45,-15656.979
-15667.607,-15669.836,-15688.139,-15723.51,-15752.444,-15785.565,-15811.978,-15822.311,-15824.501,-15849.74,-15868.337,-15834.44,-15809.786,-15837.366,-15866.508,-15858.531,-15846.802,-15817.548,-15756.544,-15728.031,-15715.923,-15714.973,-15764.707,-15840.702,-15900.136
-15919.99,-15942.69,-15943.355,-15890.843,-15859.357,-15833.786,-15795.389,-15766.467,-15733.026,-15694.943,-15677.842,-15701.655,-15726.471,-15739.673,-15757.89,-15780.27,-15775.126,-15739.117,-15738.318,-15753.945,-15783.15,-15815.428,-15812.287,-15822.399,-15824.717
-15815.008,-15811.32,-15793.182,-15783.338,-15780.85,-15782.6045,-15788.564,-15798.178,-15816.666,-15842.981,-15863.707,-15857.531,-15827.176,-15772.229,-15749.502,-15774.41,-15777.692,-15778.222,-15785.926,-15784.675,-15791.568,-15813.238,-15842.008,-15846.316,-15854.914
-15903.541,-15951.804,-15966.324,-15959.1,-15935.465,-15855.457,-15770.196,-15755.012,-15757.051,-15777.454,-15837.609,-15882.606,-15918.276,-15947.013,-15932.827,-15873.686,-15789.551,-15741.143,-15726.544,-15704.848,-15722.126,-15771.352,-15798.877,-15778.482,-15730.482
-15721.537,-15718.52,-15710.933,-15723.124,-15725.001,-15746.27,-15775.559,-15820.411,-15916.266,-16018.247,-16064.344,-15978.051,-15849.165,-15804.354,-15773.55,-15721.595,-15688.206,-15684.351,-15693.883,-15705.909,-15740.424,-15773.975,-15780.534,-15785.931,-15772.37
-15746.237,-15750.241,-15780.161,-15835.566,-15864.237,-15851.475,-15827.476,-15771.228,-15737.458,-15734.04,-15725.046,-15736.326,-15752.37,-15780.591,-15828.557,-15858.657,-15871.583,-15885.449,-15889.333,-15879.877,-15885.807,-15893.89,-15848.5205,-15771.122,-15747.548
-15764.394,-15738.003,-15693.011,-15726.5,-15825.193,-15857.665,-15795.491,-15754.418,-15769.604,-15781.964,-15792.398,-15815.688,-15843.703,-15867.958,-15859.316,-15845.045,-15840.825,-15811.642,-15761.827,-15708.432,-15708.468,-15762.318,-15803.565,-15832.029,-15838.626
-15844.749,-15870.682,-15853.504,-15794.911,-15746.169,-15721.519,-15696.422,-15669.443,-15684.611,-15740.878,-15831.927,-15875.012,-15794.548,-15732.677,-15739.377,-15750.551,-15782.63,-15798.471,-15798.3955,-15791.44,-15757.284,-15752.381,-15767.33,-15765.865,-15761.823
-15771.627,-15793.596,-15803.495,-15830.974,-15852.229,-15817.938,-15786.43,-15773.462,-15763.749,-15757.255,-15750.608,-15784.191,-15819.548,-15800.072,-15778.466,-15783.539,-15792.845,-15799.032,-15828.15,-15861.468,-15850.786,-15828.722,-15816.391,-15813.731,-15819.733
-15814.823,-15816.577,-15846.999,-15885.16,-15912.196,-15956.964,-15943.123,-15847.1045,-15786.916,-15719.543,-15659.922,-15651.687,-15644.389,-15672.277,-15704.72,-15731.26,-15752.105,-15764.46,-15802.188,-15785.921,-15751.6045,-15753.92,-15723.88,-15708.886,-15750.005
-15792.829,-15811.429,-15816.296,-15818.836,-15811.629,-15793.406,-15781.948,-15784.029,-15791.604,-15790.158,-15791.35,-15816.501,-15837.218,-15832.234,-15821.864,-15822.17,-15826.463,-15836.108,-15822.355,-15749.925,-15692.482,-15671.99,-15665.693,-15694.993,-15721.79
-15752.796,-15783.25,-15791.354,-15800.427,-15797.306,-15791.041,-15767.694,-15747.902,-15758.346,-15773.954,-15805.342,-15788.042,-15746.902,-15762.886,-15761.679,-15760.437,-15829.683,-15933.364,-16026.834,-16060.148,-16000.096,-15904.516,-15833.381,-15775.269,-15736.587
-15719.855,-15706.152,-15712.108,-15739.393,-15759.071,-15731.162,-15681.131,-15683.967,-15689.854,-15654.392,-15649.913,-15657.283,-15647.582,-15674.19,-15705.039,-15729.862,-15771.633,-15792.575,-15807.822,-15815.426,-15807.585,-15802.777,-15787.373,-15783.394,-15792.795
