0.0,-7113.725,-21466.566,-17499.86,-7196.3984,-18178.748,-16588.95,-10732.62,-18977.652,-13707.419,-15533.027,-18397.195,-14274.79,-19319.92,-16370.816,-17557.719,-18680.422,-16040.324,-18801.176,-15941.551,-17029.44,-16454.988,-15109.003,-16395.643,-14349.104
-15663.064,-14814.926,-14981.762,-15759.598,-15101.037,-16492.297,-16014.939,-16863.184,-17114.666,-17058.527,-17715.844,-17152.535,-17558.656,-17074.438,-16865.4,-16695.752,-16072.857,-16064.787,-15496.77,-15461.197,-15291.214,-15196.156,-15427.322,-15420.317,-15829.214
-16013.978,-16347.215,-16679.568,-16856.408,-17144.201,-17164.191,-17248.951,-17162.008,-16994.729,-16820.521,-16504.07,-16274.432,-15973.878,-15755.092,-15589.647,-15471.837,-15478.892,-15515.655,-15680.15,-15861.757,-16085.755,-16339.388,-16558.293,-16783.49,-16924.502
-17022.42,-17050.814,-16992.523,-16878.334,-16691.566,-16489.145,-16269.837,-16056.278,-15869.73,-15727.455,-15655.21,-15636.828,-15686.485,-15795.107,-15953.894,-16139.434,-16326.791,-16512.387,-16670.943,-16796.127,-16868.639,-16880.236,-16836.043,-16739.646,-16610.398
-16450.977,-16281.783,-16119.375,-15975.615,-15872.625,-15811.147,-15799.702,-15837.756,-15915.524,-16031.26,-16172.637,-16319.299,-16455.855,-16578.072,-16667.68,-16717.611,-16731.338,-16696.82,-16628.34,-16536.695,-16422.973,-16304.285,-16185.435,-16080.245,-16002.93
-15952.466,-15940.741,-15969.169,-16025.538,-16107.553,-16203.92,-16301.751,-16400.469,-16490.367,-16554.56,-16586.463,-16594.492,-16580.51,-16537.18,-16473.613,-16396.594,-16314.356,-16237.885,-16163.743,-16104.896,-16068.684,-16056.821,-16080.063,-16123.296,-16180.746
-16250.126,-16318.653,-16386.068,-16438.328,-16470.508,-16492.229,-16501.01,-16492.371,-16465.586,-16426.04,-16374.388,-16315.664,-16264.413,-16219.992,-16183.321,-16162.298,-16147.148,-16149.1,-16178.731,-16207.087,-16239.024,-16278.945,-16316.515,-16362.435,-16391.252
-16405.762,-16425.852,-16430.146,-16423.266,-16401.195,-16367.666,-16341.91,-16305.248,-16272.143,-16257.3,-16242.384,-16234.261,-16237.004,-16255.345,-16277.442,-16281.681,-16292.319,-16309.94,-16318.131,-16329.809,-16338.534,-16340.701,-16341.964,-16338.241,-16337.289
-16336.622,-16331.27,-16321.988,-16304.41,-16296.835,-16297.35,-16287.621,-16283.306,-16284.759,-16284.889,-16287.501,-16284.158,-16278.324,-16280.068,-16287.5625,-16295.74,-16299.562,-16302.643,-16320.321,-16339.248,-16334.501,-16329.174,-16334.2705,-16335.286,-16342.798
-16354.529,-16361.136,-16364.551,-16358.794,-16345.081,-16334.364,-16330.468,-16325.91,-16312.267,-16292.9795,-16286.338,-16285.571,-16275.117,-16286.342,-16317.564,-16339.546,-16361.024,-16375.341,-16388.059,-16403.705,-16403.951,-16407.307,-16405.205,-16395.852,-16427.973
-16471.18,-16452.064,-16377.061,-16319.258,-16296.452,-16266.882,-16253.733,-16270.219,-16309.39,-16384.314,-16449.498,-16470.262,-16450.79,-16417.771,-16400.9,-16394.428,-16375.56,-16330.918,-16310.774,-16322.679,-16314.997,-16280.14,-16241.139,-16224.515,-16216.162
-16256.855,-16328.279,-16310.466,-16286.478,-16339.672,-16385.732,-16417.977,-16431.871,-16393.979,-16382.184,-16393.186,-16378.827,-16391.414,-16380.96,-16330.811,-16297.665,-16276.805,-16306.526,-16372.91,-16422.064,-16425.283,-16400.69,-16397.277,-16356.324,-16283.422
-16252.46,-16255.753,-16332.3125,-16458.443,-16517.951,-16556.127,-16618.482,-16603.604,-16522.365,-16493.607,-16551.633,-16619.777,-16624.26,-16611.602,-16576.273,-16439.82,-16309.161,-16269.631,-16273.097,-16365.869,-16523.246,-16635.693,-16685.793,-16789.139,-16990.496
-17104.744,-17105.686,-17028.285,-16870.482,-16816.781,-16922.39,-17034.584,-17042.973,-17019.504,-17066.91,-17043.447,-16715.154,-16288.989,-16083.427,-15978.177,-16011.973,-16141.871,-16173.745,-16323.134,-16589.404,-16835.375,-17024.66,-17048.861,-16899.965,-16575.01
-16251.878,-16023.864,-15767.596,-15659.951,-15775.174,-15955.912,-16190.535,-16440.475,-16569.307,-16442.277,-16282.58,-16401.225,-16558.139,-16560.402,-16499.938,-16399.637,-16275.031,-16220.231,-16357.0205,-16488.742,-16478.852,-16557.633,-16779.857,-16895.6,-16662.418
-16327.197,-16154.61,-16051.141,-16088.388,-16259.126,-16458.383,-16542.795,-16528.406,-16741.775,-16942.742,-16874.908,-16726.277,-16483.504,-16222.493,-15999.996,-15888.163,-16027.045,-16319.347,-16659.066,-16775.781,-16604.205,-16360.038,-16080.431,-15947.133,-16072.401
-16382.597,-16735.246,-16878.055,-16682.818,-16295.157,-16061.807,-16005.136,-16113.197,-16409.396,-16431.723,-16163.086,-16052.44,-16134.336,-16213.203,-16195.868,-16186.423,-16186.364,-16171.618,-16289.5,-16675.32,-17422.604,-18118.838,-18097.316,-17431.607,-16666.266
-16116.629,-15814.245,-15660.734,-15597.829,-15658.278,-15798.484,-15931.39,-16035.447,-16070.189,-16142.539,-16367.616,-16683.49,-16975.99,-16879.355,-16363.205,-15961.324,-15805.388,-15802.776,-15954.894,-16131.44,-16269.891,-16323.558,-16395.447,-16633.125,-16881.396
-17024.383,-17036.16,-16987.354,-16930.78,-16807.412,-16661.51,-16448.762,-16316.687,-16352.332,-16257.06,-16012.404,-15821.282,-15755.419,-15825.431,-16166.671,-16583.041,-16743.217,-16776.33,-16685.531,-16512.54,-16262.577,-15970.925,-15879.919,-15788.961,-15738.783
-15808.795,-15814.0625,-15885.071,-16105.983,-16558.607,-17015.674,-17045.805,-16822.713,-16800.506,-16999.861,-16975.033,-16640.305,-16278.33,-15971.614,-15867.267,-16157.181,-16622.828,-16787.174,-16711.488,-16704.094,-16629.195,-16489.828,-16371.376,-16202.628,-16006.584
-15782.892,-15660.946,-15677.727,-15720.936,-15822.077,-15998.282,-16208.606,-16323.01,-16269.643,-16184.029,-16187.957,-16213.924,-16323.007,-16580.047,-16619.027,-16421.98,-16271.104,-16202.8545,-16434.447,-16819.887,-16827.043,-16581.691,-16549.264,-16532.012,-16228.058
-16069.111,-16099.001,-16114.051,-16355.878,-16530.424,-16479.754,-16391.324,-16251.715,-16168.412,-16027.298,-15884.625,-15879.193,-15966.487,-16078.059,-16011.888,-15974.27,-16036.374,-16099.405,-16192.979,-16112.407,-16035.126,-16048.421,-16047.224,-16173.693,-16228.733
-16156.916,-16193.839,-16337.077,-16450.473,-16437.854,-16372.545,-16232.814,-16149.849,-16365.764,-16489.438,-16394.443,-16456.283,-16630.904,-16692.36,-16582.469,-16674.95,-16950.803,-16854.229,-16554.152,-16196.848,-15827.959,-15703.087,-15630.875,-15568.648,-15581.212
-15679.312,-15871.584,-15955.964,-15887.874,-15802.85,-15856.672,-15950.939,-15985.8,-16019.619,-16022.566,-16033.617,-16009.906,-16024.77,-16230.03,-16523.857,-16620.22,-16523.912,-16700.318,-17050.207,-17278.1,-17321.676,-16828.006,-16083.714,-15662.755,-15488.522
-15465.669,-15522.227,-15578.592,-15682.751,-15816.921,-16064.153,-16486.05,-16879.6,-16920.803,-16619.295,-16474.557,-16551.404,-16391.023,-16131.3125,-16191.515,-16288.739,-16107.324,-15889.334,-15747.372,-15740.034,-15863.147,-15928.486,-16126.276,-16292.506,-16139.522
-16116.426,-16311.734,-16414.223,-16280.242,-15941.574,-15704.672,-15634.612,-15669.03,-15803.883,-15907.821,-16047.906,-16328.376,-16666.635,-16766.545,-16490.05,-16279.815,-16274.417,-16229.934,-16217.558,-16355.036,-16592.54,-16676.78,-16486.775,-16374.671,-16515.77
-16371.159,-15860.643,-15698.249,-15758.907,-15652.108,-15599.249,-15652.349,-15799.802,-15965.324,-15988.644,-15976.894,-16040.026,-16113.443,-16312.156,-16523.562,-16423.797,-16405.84,-16535.03,-16381.202,-16023.827,-15705.942,-15676.123,-15744.088,-15842.36,-16170.0205
-16344.665,-16234.743,-16054.012,-15990.669,-16009.352,-15916.096,-15904.49,-15988.024,-16070.659,-16201.798,-16320.113,-16420.93,-16345.628,-16053.823,-15887.294,-15964.981,-16113.086,-16197.298,-16126.121,-15942.451,-15832.884,-15848.193,-15888.434,-15963.827,-16161.447
-16328.86,-16257.393,-16121.855,-16178.319,-16321.525,-16271.566,-16061.975,-16155.266,-16571.621,-16694.078,-16317.591,-15896.381,-15840.294,-15862.924,-15823.985,-15948.075,-15955.592,-15950.756,-16098.376,-16175.438,-16218.845,-16220.7,-16361.564,-16406.166,-16015.471
-15642.57,-15394.63,-15313.565,-15648.456,-16130.718,-16291.535,-16054.017,-15839.62,-15798.303,-15845.57,-15962.137,-15995.01,-16052.296,-16107.885,-16027.014,-15942.415,-15836.551,-15785.2705,-15826.478,-15874.209,-15918.965,-15946.226,-16136.273,-16343.927,-16269.569
-16225.212,-16335.532,-16188.055,-15887.406,-15878.938,-15982.858,-16154.835,-16694.73,-17193.09,-17117.979,-16606.146,-16061.84,-15690.248,-15415.656,-15227.599,-15202.153,-15277.786,-15339.138,-15361.092,-15452.233,-15664.42,-15932.87,-16132.651,-16124.265,-16056.319
-16205.046,-16525.225,-16770.63,-16809.72,-16615.22,-16221.544,-15952.002,-16022.104,-16146.412,-16094.557,-15946.832,-15790.837,-15725.824,-16022.745,-16387.062,-16228.518,-15829.382,-15577.541,-15558.966,-15681.02,-15798.939,-15994.797,-16034.921,-15925.777,-15834.792
-15723.17,-15714.766,-15633.81,-15516.608,-15522.488,-15557.634,-15638.378,-15691.305,-15825.5,-16016.158,-16155.017,-16322.303,-16304.224,-16202.076,-16290.389,-16513.709,-16685.998,-16625.037,-16532.152,-16334.323,-16023.256,-15958.035,-15753.128,-15495.485,-15524.972
-15515.603,-15632.915,-15794.717,-15923.572,-16300.401,-16480.707,-16181.813,-15734.896,-15538.461,-15606.463,-15696.537,-15790.17,-15821.488,-15814.938,-15805.583,-15858.243,-16253.623,-16872.924,-17163.45,-16736.803,-15968.199,-15461.563,-15357.745,-15585.904,-15760.563
-15820.237,-16018.055,-16182.5625,-16236.619,-16180.806,-16157.171,-16395.998,-16663.1,-16554.363,-16032.824,-15637.948,-15506.057,-15435.836,-15580.002,-15795.161,-16141.555,-16518.824,-16395.5,-16059.655,-15838.8,-15742.68,-15936.052,-16226.626,-16228.1455,-16016.223
-15939.289,-15849.323,-15655.292,-15630.951,-15714.363,-15783.717,-15804.959,-15853.363,-16022.4,-16140.013,-16127.185,-16111.18,-16210.65,-16410.143,-16511.08,-16248.128,-15872.653,-15788.649,-15867.401,-16104.655,-16315.525,-16287.904,-16209.919,-16065.163,-16195.475
-16485.31,-16225.995,-15842.33,-15732.249,-15746.238,-16058.257,-16362.617,-16322.771,-16242.227,-16115.946,-15878.832,-15915.533,-16213.45,-16336.987,-16143.71,-15800.99,-15545.653,-15488.743,-15658.606,-15951.6455,-16048.036,-15972.47,-16050.042,-16250.065,-16419.395
-16389.33,-16024.539,-15792.405,-15899.985,-15923.575,-15873.489,-15860.796,-15952.718,-16112.366,-15981.247,-15747.244,-15729.69,-15870.118,-16082.564,-16183.6875,-16092.155,-16027.621,-16263.451,-16480.379,-16317.952,-16129.001,-16043.474,-15913.528,-15821.461,-15856.427
-15971.628,-16073.359,-16111.033,-15948.959,-15808.171,-15851.017,-15812.277,-15817.949,-15871.2705,-15938.055,-16105.043,-16134.798,-16277.065,-16704.324,-17029.836,-16981.676,-16462.11,-15966.818,-15802.292,-15686.282,-15940.699,-16401.182,-16372.225,-16216.127,-16317.486
-16396.107,-16101.866,-15738.593,-15723.322,-15608.227,-15413.363,-15445.544,-15512.854,-15678.602,-16000.997,-16267.264,-16265.861,-16046.965,-15796.671,-15669.454,-15706.245,-15791.749,-15900.694,-15930.653,-15922.238,-16008.318,-16079.625,-16118.711,-16098.926,-16018.667
-15956.747,-15941.638,-16093.447,-16382.137,-16531.639,-16364.782,-15993.598,-15678.409,-15596.189,-15660.916,-15735.949,-15833.18,-15856.56,-15866.318,-16008.354,-16151.619,-16138.105,-15960.3545,-15864.311,-15914.792,-16043.566,-16380.847,-16840.799,-17154.281,-17109.56
-16807.873,-16251.995,-15531.834,-15306.947,-15492.552,-15696.917,-15989.052,-16149.005,-16100.445,-16042.433,-16130.805,-16309.715,-16347.695,-16185.055,-15863.503,-15583.017,-15531.519,-15551.403,-15460.368,-15462.512,-15644.479,-15829.808,-16094.869,-16319.713,-16370.855
-16495.81,-16757.943,-16946.424,-16753.994,-16223.161,-15799.723,-15665.697,-15728.822,-15785.402,-15659.102,-15555.965,-15587.356,-15625.678,-15768.577,-15878.537,-15788.759,-15738.158,-15828.547,-16046.355,-16336.936,-16568.912,-16758.92,-16811.264,-16542.465,-16217.762
-16094.824,-15962.194,-15854.062,-15910.385,-15961.334,-15954.909,-15991.396,-16052.023,-15926.429,-15697.204,-15681.683,-15862.148,-16198.535,-16605.693,-16716.688,-16450.238,-16171.413,-16088.183,-16177.106,-16179.035,-15862.991,-15647.1455,-15643.822,-15655.266,-15764.866
-15759.035,-15718.581,-15766.962,-15767.15,-15806.045,-15835.404,-15933.175,-16019.461,-15894.555,-15780.676,-15801.147,-16020.587,-16264.997,-16189.826,-16038.118,-16152.73,-16468.314,-16616.822,-16344.585,-16004.178,-15837.179,-15790.863,-16010.469,-16302.046,-16443.488
-16569.145,-16495.459,-16069.299,-15657.452,-15463.729,-15408.82,-15581.218,-15905.695,-16237.993,-16550.03,-16566.137,-16295.945,-16233.84,-16494.834,-16692.312,-16478.506,-15928.631,-15574.051,-15560.583,-15619.731,-15724.137,-15734.974,-15669.678,-15690.125,-15704.739
-15698.341,-15668.345,-15659.856,-15672.2705,-15712.573,-15845.949,-15946.888,-16024.069,-16152.498,-16322.553,-16460.453,-16413.693,-16210.571,-16067.222,-16170.207,-16339.096,-16313.772,-16186.743,-16096.825,-16118.886,-16142.991,-16053.822,-15939.905,-15717.411,-15488.785
-15459.798,-15519.444,-15635.612,-15760.941,-15867.133,-15981.586,-16065.561,-16166.696,-16278.218,-16373.121,-16356.289,-16292.039,-16356.57,-16429.105,-16430.342,-16208.981,-15947.788,-16060.523,-16127.653,-15918.33,-15720.545,-15648.391,-15788.228,-15983.796,-16164.795
-16302.959,-16226.631,-15993.379,-15802.221,-15894.26,-16091.386,-16122.435,-16137.221,-16172.197,-16058.591,-15803.891,-15705.1875,-15796.488,-15915.421,-16008.331,-16012.859,-16068.066,-16119.204,-16022.03,-15896.721,-15773.459,-15732.515,-15777.961,-15749.902,-15723.81
-15748.296,-15758.218,-15836.416,-16043.446,-16262.298,-16262.914,-16154.07,-16141.954,-16063.957,-16031.518,-16149.059,-16217.42,-16296.912,-16384.35,-16452.295,-16664.445,-16810.729,-16476.324,-15938.557,-15682.544,-15535.7,-15442.327,-15486.132,-15518.725,-15569.727
-15612.2705,-15702.296,-15924.857,-16167.4,-16309.876,-16265.209,-16242.901,-16292.254,-16192.532,-15996.917,-15951.025,-16204.209,-16465.441,-16400.023,-16131.5,-15894.971,-15806.892,-15862.138,-15900.817,-15981.072,-16157.005,-16094.64,-15950.239,-15937.014,-15788.149
-15668.392,-15701.825,-15806.095,-15976.192,-15977.024,-15870.601,-15842.172,-15813.628,-15875.298,-16047.978,-16197.384,-16305.739,-16301.968,-16210.202,-16189.385,-16234.619,-16280.312,-16239.772,-16037.3,-15883.003,-15944.942,-16027.257,-16048.734,-16075.383,-16108.459
-16291.176,-16644.537,-16684.184,-16186.641,-15750.739,-15596.654,-15577.918,-15714.215,-15735.797,-15752.229,-15810.633,-15831.38,-16114.591,-16368.29,-16439.121,-16441.678,-16206.603,-15903.064,-15719.293,-15658.661,-15681.414,-15734.7295,-15785.771,-15849.36,-15927.313
-15928.192,-15925.243,-15958.731,-15998.415,-16057.873,-16199.143,-16636.574,-17166.076,-17156.674,-16533.83,-15935.241,-15720.89,-15677.167,-15596.02,-15495.308,-15545.749,-15689.092,-15856.068,-16145.738,-16398.736,-16713.172,-17099.781,-16957.15,-16379.682,-16068.804
-16001.2,-15852.478,-15693.934,-15575.787,-15642.459,-16046.845,-16296.761,-16173.457,-16002.855,-15808.434,-15689.504,-15735.38,-15837.919,-16048.359,-16232.449,-16290.332,-16460.34,-16704.584,-16822.896,-16740.566,-16316.095,-15744.48,-15439.883,-15417.869,-15490.3545
-15539.752,-15598.827,-15787.854,-16050.546,-16284.353,-16422.887,-16433.229,-16404.049,-16193.351,-15827.393,-15647.995,-15528.744,-15450.153,-15603.18,-15885.238,-16194.444,-16227.709,-15946.586,-15764.073,-15720.388,-15719.546,-15873.928,-16246.592,-16614.686,-16635.623
-16467.416,-16462.75,-16370.715,-16124.216,-16171.083,-16320.247,-16237.179,-16096.549,-15969.5205,-15822.462,-15701.099,-15731.158,-15769.748,-15680.724,-15684.048,-15689.358,-15687.867,-15756.24,-15781.251,-15861.93,-15914.143,-15995.888,-16296.261,-16584.38,-16562.281
-16311.33,-16289.736,-16362.213,-16100.618,-15799.591,-15715.486,-15717.852,-15924.673,-16398.146,-16628.244,-16447.385,-16252.699,-16014.804,-15664.345,-15523.342,-15579.355,-15613.885,-15743.77,-16021.31,-16242.549,-16141.47,-15839.659,-15706.215,-15618.573,-15552.693
-15619.127,-15733.351,-16138.874,-16827.375,-17176.402,-16894.508,-16422.139,-16070.074,-15865.541,-15868.462,-15824.234,-15697.731,-15621.899,-15544.701,-15570.042,-15608.024,-15631.629,-15762.692,-15976.687,-16180.361,-16115.808,-15887.396,-15926.454,-16317.09,-16707.402
-16691.494,-16318.519,-15995.082,-15939.568,-15932.496,-15818.447,-15721.711,-15692.007,-15715.491,-15756.025,-15848.232,-16179.069,-16769.547,-17114.994,-16750.797,-16010.147,-15450.311,-15357.094,-15691.799,-15987.304,-16028.43,-16031.69,-16099.053,-16162.975,-16150.447
-16142.397,-16245.994,-16473.443,-16620.285,-16419.053,-16012.582,-15620.037,-15459.514,-15576.191,-15683.801,-15712.24,-15613.944,-15532.056,-15596.529,-15651.908,-15827.428,-16091.938,-16272.448,-16286.775,-16167.114,-16076.942,-15942.312,-15885.08,-15946.461,-15962.55
-16007.21,-16077.933,-16306.169,-16507.627,-16260.758,-15988.939,-16039.522,-15986.354,-15698.211,-15579.089,-15677.2,-15789.903,-15922.473,-15992.703,-16082.368,-16221.765,-16170.55,-16012.302,-15884.84,-15818.539,-15767.819,-15656.627,-15673.417,-15835.958,-16016.912
-16116.971,-16034.54,-16196.295,-16760.684,-16940.951,-16536.316,-16280.973,-16226.071,-15968.201,-15838.906,-16019.77,-16141.7,-16017.671,-15729.998,-15556.716,-15567.146,-15677.677,-15775.113,-15760.767,-15850.033,-15973.018,-15927.308,-15800.014,-15668.479,-15647.167
-15740.598,-15845.284,-15927.121,-16074.512,-16210.654,-16171.238,-16106.376,-16040.068,-16038.255,-16162.541,-16284.31,-16413.988,-16374.925,-16277.062,-16211.275,-16004.582,-16003.036,-16105.505,-16152.206,-16429.883,-16467.031,-16070.677,-15764.575,-15562.309,-15474.983
-15586.423,-15636.997,-15700.593,-15823.894,-15896.937,-16011.769,-16143.641,-16212.938,-16028.854,-15823.146,-15872.705,-15938.864,-16222.919,-16762.879,-17019.762,-16584.068,-15937.538,-15820.832,-15817.209,-15746.597,-15730.344,-15621.771,-15702.847,-15811.907,-15884.94
-16091.933,-16149.24,-16066.558,-15955.155,-15842.024,-15720.568,-15581.202,-15519.459,-15506.33,-15568.363,-15767.149,-16175.9795,-16672.227,-16937.338,-16919.086,-16574.8,-16111.5205,-15984.474,-16217.394,-16595.518,-16624.39,-16115.712,-15639.819,-15338.377,-15228.638
-15377.533,-15442.389,-15536.201,-15774.453,-16076.116,-16477.04,-16572.926,-16249.913,-15955.486,-15857.039,-15873.55,-15872.269,-15779.882,-15782.593,-15842.831,-15835.826,-15875.593,-15858.453,-15848.661,-15885.479,-15829.014,-15840.425,-15926.956,-16100.268,-16271.428
-16162.622,-15961.51,-15839.979,-15679.612,-15550.368,-15559.166,-15652.496,-15853.234,-16074.944,-16149.646,-16147.388,-16165.576,-16269.287,-16309.602,-16218.641,-16174.514,-16016.381,-15779.927,-15663.106,-15687.66,-15951.552,-16170.755,-16241.818,-16291.187,-16114.253
-15885.578,-15827.989,-15894.18,-15972.768,-15895.113,-15827.346,-15831.461,-15882.23,-15999.723,-16015.353,-16114.193,-16297.146,-16197.965,-15860.863,-15546.932,-15448.047,-15559.511,-15735.8545,-15875.911,-15982.853,-16123.741,-16250.952,-16279.704,-16362.224,-16643.777
-16791.436,-16633.816,-16312.767,-15949.952,-15954.202,-16097.772,-15884.011,-15682.123,-15670.74,-15792.542,-16171.557,-16541.928,-16380.828,-15825.689,-15480.317,-15347.583,-15465.088,-15757.483,-15815.108,-15884.759,-16055.093,-16169.33,-16157.3125,-16051.971,-16134.409
-16109.298,-15892.552,-15737.551,-15601.864,-15621.829,-15735.604,-15965.816,-16317.106,-16422.303,-16227.264,-15985.806,-15867.455,-15759.501,-15707.501,-15792.334,-15934.497,-16193.025,-16286.747,-16101.647,-15954.046,-15949.185,-16040.089,-16058.953,-16060.386,-16168.652
-16284.013,-16412.064,-16340.272,-15947.385,-15622.342,-15556.969,-15626.716,-15724.45,-15786.238,-15807.848,-15805.942,-15810.98,-15867.789,-15924.725,-15938.195,-16069.494,-16474.89,-16930.084,-17056.355,-16770.63,-16130.82,-15512.296,-15290.3125,-15321.1,-15665.083
-16018.229,-15943.241,-15866.771,-15798.848,-15703.951,-15823.016,-15911.327,-15973.899,-16047.08,-16087.751,-16090.364,-15938.643,-15760.024,-15636.265,-15745.039,-16211.352,-16777.373,-17044.334,-16747.756,-16316.109,-16070.574,-15866.294,-15762.349,-15715.976,-15713.309
-15849.784,-16037.892,-16032.083,-15900.582,-16036.837,-16177.321,-15943.289,-15656.215,-15630.523,-15765.668,-15846.994,-15756.596,-15549.572,-15510.195,-15604.233,-15726.545,-16013.816,-16358.548,-16792.11,-16964.975,-16526.135,-16068.853,-15769.141,-15578.479,-15656.436
-15739.062,-15757.722,-15784.232,-15746.896,-15649.249,-15608.81,-15800.164,-15993.99,-15916.3125,-15792.739,-15795.831,-15836.445,-15863.843,-15879.643,-15896.406,-15931.257,-15969.197,-16022.889,-16156.638,-16453.781,-16695.002,-16413.797,-15888.152,-15649.134,-15618.479
-15915.671,-16515.574,-16872.691,-16742.97,-16312.531,-16030.738,-15937.321,-15827.327,-15817.597,-15747.612,-15670.864,-15734.383,-15739.921,-15865.835,-16074.519,-16076.022,-15864.61,-15625.382,-15568.74,-15480.65,-15361.802,-15422.203,-15540.022,-15743.529,-15957.298
-16027.334,-16040.679,-16076.28,-16226.454,-16470.955,-16672.074,-16774.76,-16625.668,-16169.818,-15750.61,-15544.577,-15548.516,-15779.063,-15897.271,-15901.279,-16149.031,-16405.848,-16230.619,-15795.354,-15613.463,-15584.451,-15579.257,-15715.745,-15716.656,-15716.208
-15848.246,-15911.652,-15977.319,-16020.069,-16076.963,-16013.682,-15785.848,-15689.245,-15622.688,-15588.463,-15637.029,-15672.826,-15767.52,-15845.205,-15945.395,-16113.721,-16175.529,-16134.983,-16105.854,-16265.955,-16603.549,-16675.361,-16429.104,-16205.733,-15898.15
-15504.992,-15359.639,-15470.199,-15598.783,-15587.838,-15614.856,-15876.505,-16272.871,-16514.113,-16336.966,-16015.754,-15784.257,-15630.263,-15660.5625,-15714.222,-15732.065,-15733.54,-15731.941,-15795.939,-15785.769,-15795.314,-15868.043,-15904.422,-15944.619,-15992.991
-16083.737,-16107.804,-16079.749,-16228.007,-16448.988,-16386.77,-16031.417,-15735.74,-15661.386,-15747.205,-15829.153,-15809.334,-15745.067,-15694.281,-15699.195,-15721.905,-15788.528,-15905.465,-15952.857,-15898.906,-15909.969,-16130.63,-16242.841,-16043.802,-15879.905
-15876.447,-15849.935,-15790.403,-15902.844,-16472.193,-17246.088,-17328.834,-16632.553,-15935.631,-15537.956,-15431.891,-15533.735,-15600.104,-15639.526,-15706.27,-15743.663,-15799.721,-15840.379,-15807.35,-15739.701,-15664.976,-15655.473,-15649.677,-15635.926,-15701.339
-15733.257,-15788.254,-15973.223,-16339.484,-16752.533,-16729.402,-16427.904,-16445.684,-16777.562,-16875.576,-16478.268,-15991.907,-15633.11,-15434.027,-15403.138,-15381.344,-15459.351,-15568.455,-15627.482,-15663.173,-15623.034,-15654.994,-15668.714,-15680.392,-15780.15
-15847.12,-15967.037,-15991.17,-15923.8545,-16030.479,-16145.649,-16123.681,-16096.488,-16040.54,-15877.414,-15785.705,-15778.919,-15769.689,-15821.26,-15903.351,-16032.648,-16090.594,-15955.973,-15862.7295,-15904.964,-15936.412,-15907.774,-15854.38,-15790.699,-15806.219
-15973.521,-16057.5205,-15984.5625,-15994.179,-16068.646,-16092.564,-16031.561,-15925.417,-15889.208,-16014.528,-16336.935,-16539.146,-16379.6,-16099.777,-15939.408,-15980.25,-16154.253,-16361.551,-16518.082,-16398.627,-16096.325,-15958.95,-15834.374,-15671.689,-15647.033
-15584.008,-15585.564,-15672.423,-15668.035,-15712.1455,-15740.291,-15688.505,-15616.313,-15589.806,-15660.956,-15716.845,-15724.655,-15703.631,-15740.212,-15840.423,-15931.419,-16129.747,-16461.299,-16678.58,-16640.42,-16726.295,-16961.484,-16669.875,-15974.703,-15631.859
-15657.889,-15740.929,-15729.78,-15552.848,-15426.288,-15411.974,-15461.885,-15593.098,-15678.991,-15802.903,-15903.889,-15911.786,-15964.834,-15935.631,-15870.533,-15859.395,-15893.227,-16074.619,-16242.028,-16266.469,-16151.333,-15982.036,-15980.7295,-15939.482,-15815.474
-15848.183,-15795.793,-15692.587,-15682.6045,-15683.28,-15771.352,-15805.796,-15774.681,-15764.359,-15747.47,-15795.152,-15827.74,-15863.42,-16038.093,-16433.113,-16910.637,-17008.217,-16562.928,-15983.796,-15654.547,-15476.216,-15412.977,-15522.768,-15647.192,-15777.28
-15878.677,-15956.21,-16046.921,-16032.195,-15954.638,-15882.723,-15967.221,-16212.554,-16256.906,-16079.227,-15858.997,-15649.331,-15551.247,-15558.411,-15609.517,-15680.312,-15785.114,-15882.164,-15908.758,-15964.696,-16046.587,-16081.248,-16078.366,-16105.984,-16210.642
-16334.725,-16567.717,-16727.494,-16497.975,-16142.463,-15819.067,-15529.648,-15529.259,-15708.272,-15766.198,-15801.17,-15917.325,-15930.585,-15854.63,-15902.659,-15941.373,-15850.311,-15788.396,-15720.967,-15637.544,-15662.985,-15803.862,-16120.337,-16542.05,-16842.309
-16893.715,-16709.29,-16391.781,-15900.749,-15519.726,-15551.312,-15636.299,-15786.261,-16080.542,-16118.753,-16006.071,-16009.626,-15973.444,-15761.21,-15592.935,-15534.729,-15434.189,-15472.986,-15617.388,-15678.129,-15691.54,-15700.866,-15872.567,-16168.805,-16311.766
-16204.913,-16105.182,-16155.552,-16125.275,-16071.332,-16038.482,-15959.13,-15901.292,-15766.98,-15625.778,-15530.562,-15438.808,-15423.565,-15438.616,-15515.851,-15667.205,-15837.886,-15984.441,-16017.443,-16047.862,-16188.397,-16367.697,-16575.307,-16761.043,-16694.832
-16491.889,-16413.266,-16176.574,-15764.07,-15563.676,-15567.737,-15662.422,-15868.275,-16095.52,-16017.382,-15670.29,-15497.886,-15467.398,-15558.115,-15855.044,-16135.042,-16306.585,-16239.845,-16042.092,-15964.237,-15904.283,-15896.559,-15909.8955,-15808.969,-15673.006
-15617.91,-15673.603,-15770.345,-15817.014,-15732.573,-15710.2,-15858.81,-15975.362,-16042.97,-16102.189,-16203.454,-16226.885,-16175.027,-16369.108,-16493.34,-16232.383,-15908.604,-15707.791,-15695.248,-15875.083,-16018.718,-15969.929,-15855.338,-15864.293,-16040.552
-16287.81,-16413.121,-16189.307,-15745.066,-15567.181,-15669.393,-15896.9,-16168.243,-16101.852,-15875.293,-15835.408,-15815.376,-15938.241,-16242.876,-16352.157,-16223.804,-15970.501,-15645.104,-15542.857,-15626.35,-15573.581,-15521.987,-15597.861,-15728.59,-15896.936
-16010.7,-16028.832,-15990.369,-15951.353,-15932.493,-15922.065,-15880.7295,-15804.885,-15803.784,-15843.559,-15895.047,-16043.654,-16170.682,-16072.521,-15912.734,-15919.73,-15922.861,-16007.738,-16211.837,-16161.582,-15951.386,-15822.809,-15819.57,-15868.096,-15821.169
-15778.904,-15777.977,-15753.064,-15713.579,-15673.448,-15664.065,-15666.066,-15668.402,-15681.559,-15704.039,-15732.496,-15774.979,-15849.494,-16000.341,-16308.342,-16720.809,-17001.537,-16875.184,-16503.797,-16316.129,-16034.121,-15603.233,-15535.936,-15533.824,-15503.242
-15647.575,-15693.956,-15764.238,-15792.478,-15715.874,-15722.4795,-15665.363,-15654.796,-15670.213,-15656.332,-15723.973,-15761.828,-15820.05,-15940.543,-16137.306,-16301.298,-16375.981,-16568.688,-16639.475,-16427.498,-16257.876,-16145.529,-15949.0625,-15840.387,-15812.924
-15711.637,-15645.92,-15609.707,-15607.083,-15652.862,-15653.383,-15658.475,-15698.566,-15804.65,-15818.046,-15711.657,-15728.726,-15780.608,-15841.679,-16001.086,-16210.918,-16314.097,-16228.579,-16158.144,-16064.225,-15883.059,-15759.311,-15692.291,-15705.307,-15772.955
-15814.832,-15811.507,-15778.321,-15757.835,-15829.291,-16042.8955,-16198.757,-16138.251,-15937.645,-15794.206,-15836.257,-15977.295,-16132.23,-16109.677,-15956.127,-15965.959,-16016.765,-16030.712,-16027.625,-15996.505,-16145.57,-16414.285,-16578.836,-16489.465,-16111.905
-15703.217,-15433.666,-15325.514,-15404.965,-15688.098,-16173.256,-16735.863,-16885.629,-16320.399,-15743.727,-15575.281,-15528.077,-15574.555,-15633.318,-15693.427,-15743.753,-15728.352,-15758.743,-15736.482,-15694.412,-15707.882,-15845.412,-16156.315,-16301.702,-16227.242
-16134.973,-16026.199,-15874.611,-15786.487,-15862.677,-15918.883,-15903.668,-15885.42,-15831.444,-15807.789,-15792.158,-15785.918,-15832.27,-15835.66,-15771.569,-15710.29,-15673.36,-15676.537,-15777.338,-15944.598,-16024.166,-15969.013,-15923.87,-15910.562,-15879.747
-15938.1,-16104.815,-16272.067,-16355.756,-16428.857,-16450.285,-16205.512,-15889.412,-15680.741,-15495.332,-15486.53,-15808.352,-16214.008,-16192.61,-15859.63,-15808.73,-15993.098,-16071.293,-15996.281,-15942.303,-15943.693,-15857.941,-15803.73,-15809.827,-15788.633
-15800.071,-15808.417,-15792.529,-15787.972,-15807.199,-15757.156,-15656.619,-15662.183,-15699.631,-15771.682,-15938.587,-16118.777,-16147.623,-16002.96,-15944.573,-15886.443,-15829.434,-15937.613,-15977.059,-16021.839,-16169.645,-16390.855,-16635.584,-16501.598,-16075.701
-15712.611,-15431.428,-15350.437,-15518.177,-15732.924,-15846.964,-15848.468,-15748.857,-15680.5205,-15740.46,-15800.797,-15800.608,-15800.079,-15839.979,-15964.921,-16151.296,-16229.496,-16156.481,-16031.547,-15965.889,-16245.151,-16722.488,-16742.428,-16297.512,-15853.36
-15559.361,-15500.31,-15637.814,-15739.481,-15812.759,-15892.512,-15964.445,-16079.907,-16179.996,-16257.872,-16311.706,-16358.483,-16547.639,-16746.309,-16393.979,-15592.219,-15220.225,-15342.101,-15611.986,-15826.196,-15796.911,-15798.169,-15828.307,-15893.114,-16065.982
-16091.823,-16041.941,-15966.131,-15900.562,-15798.095,-15589.392,-15499.383,-15499.596,-15549.54,-15638.873,-15692.72,-15754.301,-15810.014,-15904.431,-16080.414,-16214.047,-16179.294,-16124.948,-16216.741,-16340.027,-16377.638,-16268.758,-16015.217,-15717.582,-15509.214
-15442.822,-15437.154,-15491.625,-15596.857,-15664.774,-15691.622,-15718.08,-15801.518,-15934.097,-16064.246,-16177.856,-16339.436,-16620.066,-16729.129,-16562.227,-16581.94,-16701.092,-16531.998,-16308.623,-16164.34,-15916.094,-15674.794,-15639.814,-15570.286,-15383.467
-15424.554,-15541.715,-15596.075,-15705.066,-15714.537,-15717.676,-15742.378,-15705.761,-15709.471,-15706.518,-15697.744,-15685.202,-15674.325,-15697.806,-15719.045,-15768.595,-15832.511,-15907.093,-15970.067,-15985.564,-15999.547,-16044.59,-16117.72,-16117.805,-16049.898
-16026.93,-16061.666,-16105.584,-16121.406,-16205.789,-16240.688,-15987.432,-15656.555,-15492.207,-15483.828,-15577.416,-15728.925,-15892.8545,-15950.149,-15962.285,-16040.767,-16013.999,-15875.434,-15783.587,-15734.598,-15718.163,-15736.5,-15764.148,-15781.215,-15875.545
-16049.165,-16085.293,-16011.006,-16000.083,-16076.36,-16148.732,-16065.571,-15920.366,-15827.69,-15739.559,-15703.628,-15722.769,-15796.881,-15897.794,-15938.595,-15913.706,-15821.611,-15786.058,-15846.035,-15909.744,-15906.493,-15741.46,-15614.492,-15670.769,-15770.185
-15852.238,-15874.711,-15870.012,-15930.733,-16080.224,-16287.785,-16530.645,-16735.984,-16677.81,-16333.453,-15976.291,-15734.718,-15546.35,-15441.022,-15472.137,-15523.68,-15511.509,-15538.165,-15637.128,-15761.612,-15905.275,-16043.18,-16249.017,-16416.742,-16360.272
-16221.614,-16030.769,-15794.701,-15706.117,-15911.735,-16383.943,-16726.066,-16498.514,-15905.062,-15575.249,-15502.403,-15568.34,-15952.731,-16294.274,-16313.484,-16022.718,-15647.145,-15510.59,-15475.699,-15545.858,-15727.017,-16024.972,-16550.592,-16910.775,-16774.773
-16213.456,-15598.485,-15341.061,-15389.416,-15519.063,-15725.472,-15969.386,-16049.913,-15994.033,-15933.871,-15885.476,-15890.196,-16005.899,-16108.084,-15981.134,-15775.895,-15669.446,-15611.902,-15561.545,-15541.82,-15624.392,-15703.848,-15798.852,-15908.575,-15876.463
-15859.495,-15895.632,-15894.074,-15896.057,-15917.665,-15995.566,-16096.313,-16080.372,-15880.625,-15845.406,-16208.474,-16570.291,-16570.482,-16255.537,-15871.527,-15565.943,-15475.197,-15532.498,-15543.103,-15647.925,-15753.785,-15808.428,-15894.594,-15853.957,-15803.688
-15819.479,-15888.299,-15918.697,-15790.112,-15851.588,-16087.47,-16109.04,-16012.872,-15999.459,-16079.824,-16297.358,-16606.6,-16680.502,-16429.043,-16124.622,-15954.627,-16079.76,-16305.2295,-16388.54,-16649.59,-16969.986,-16646.25,-15781.902,-15214.296,-15074.364
-15099.428,-15256.106,-15330.3125,-15388.73,-15502.446,-15599.479,-15763.497,-15874.345,-15928.506,-15930.591,-15905.281,-15901.904,-15848.905,-15826.586,-15801.988,-15800.701,-15840.005,-15874.794,-15930.464,-15882.629,-15820.796,-15844.017,-15842.597,-15813.11,-15793.071
-15818.889,-15975.085,-16139.087,-16091.07,-16002.529,-15951.121,-16017.251,-16234.771,-16103.961,-15808.329,-15700.232,-15660.125,-15897.867,-16111.457,-15998.629,-16007.414,-16246.906,-16380.052,-16269.619,-16149.237,-16096.932,-16115.301,-16197.069,-16019.882,-15838.376
-15891.3955,-15743.575,-15526.645,-15527.107,-15593.2295,-15631.876,-15697.391,-15851.663,-15952.083,-15909.175,-15795.832,-15695.643,-15701.37,-15802.228,-15912.784,-15948.556,-15952.853,-15943.201,-15876.464,-15843.814,-15812.694,-15814.314,-15980.536,-16225.907,-16456.451
-16429.03,-16194.785,-16223.885,-16268.797,-16024.75,-15858.93,-15839.062,-15750.335,-15649.643,-15623.675,-15627.128,-15656.942,-15768.927,-15984.376,-16173.472,-16241.502,-16227.536,-16101.347,-15856.428,-15577.588,-15489.12,-15586.567,-15629.062,-15660.653,-15701.123
-15728.352,-15763.774,-15838.593,-15979.726,-15999.579,-15935.884,-15906.483,-15818.684,-15741.809,-15776.953,-15868.985,-15914.145,-15944.108,-16085.028,-16237.421,-16166.596,-16016.202,-16014.747,-15944.051,-15812.547,-15803.229,-15773.349,-15820.54,-15956.615,-15927.615
-15829.826,-15790.614,-15792.424,-15795.392,-15819.177,-16046.931,-16446.066,-16788.494,-17029.27,-16964.73,-16366.468,-15791.928,-15618.534,-15524.032,-15544.604,-15701.707,-15852.107,-15935.974,-15889.58,-15844.816,-15799.14,-15751.908,-15731.894,-15718.61,-15777.81
-15736.257,-15566.286,-15483.886,-15511.458,-15651.206,-15917.44,-16146.848,-16181.129,-16060.205,-15950.423,-15942.017,-15913.564,-15878.012,-15904.332,-15898.707,-15904.654,-15954.539,-16152.775,-16665.662,-17103.924,-16907.871,-16252.85,-15721.405,-15589.775,-15725.312
-15811.629,-15828.307,-15761.833,-15590.742,-15620.608,-15760.533,-15882.62,-16044.3,-16170.86,-16368.392,-16345.74,-16065.505,-16006.423,-15894.429,-15588.581,-15491.546,-15569.132,-15635.226,-15672.231,-15695.381,-15709.983,-15711.965,-15776.177,-15883.272,-15953.723
-15999.064,-16059.053,-16226.975,-16333.887,-16210.296,-16184.267,-16287.384,-16128.436,-15855.261,-15759.968,-15688.311,-15562.267,-15422.906,-15409.396,-15553.754,-15659.592,-15801.972,-15909.12,-15912.2295,-15933.587,-15890.74,-15898.54,-16047.745,-16162.414,-16031.796
-15784.607,-15672.958,-15563.305,-15527.45,-15577.773,-15582.611,-15693.588,-15906.432,-16176.158,-16387.47,-16481.121,-16528.883,-16514.723,-16553.178,-16474.975,-16200.863,-16018.936,-15842.431,-15610.811,-15474.151,-15426.252,-15438.076,-15527.233,-15748.45,-16085.096
-16344.547,-16378.634,-16229.103,-15990.404,-15861.783,-15874.292,-15738.996,-15573.577,-15591.642,-15588.491,-15675.435,-15976.3545,-16359.068,-16875.748,-17059.281,-16496.922,-15805.297,-15430.546,-15280.391,-15264.534,-15286.597,-15379.768,-15503.382,-15614.445,-15786.941
-15954.651,-16203.559,-16560.203,-16679.488,-16403.512,-16061.42,-15972.507,-15918.242,-15750.366,-15765.876,-15888.913,-15796.015,-15644.005,-15597.786,-15576.641,-15600.535,-15624.998,-15689.409,-15853.204,-16030.327,-16272.313,-16444.006,-16318.204,-16083.122,-15942.652
-15819.954,-15793.573,-15904.545,-15984.25,-16058.232,-16012.679,-15786.609,-15642.2705,-15667.403,-15795.628,-15860.467,-15783.274,-15702.324,-15704.309,-15751.123,-15720.182,-15671.967,-15784.731,-15904.716,-15949.302,-16159.162,-16406.623,-16325.659,-16042.018,-15977.703
-16149.938,-16353.092,-16447.957,-16260.638,-16020.177,-15933.494,-15920.437,-15954.7295,-15829.747,-15636.509,-15590.577,-15562.239,-15494.087,-15458.637,-15470.994,-15484.031,-15516.152,-15528.079,-15544.365,-15590.242,-15624.027,-15703.712,-15752.736,-15790.073,-15860.746
-16011.375,-16288.466,-16425.701,-16340.722,-16214.328,-16202.085,-16268.953,-16290.001,-16192.256,-15778.431,-15325.667,-15240.155,-15305.369,-15423.644,-15550.994,-15604.089,-15702.159,-15756.643,-15800.832,-15837.106,-15793.369,-15816.789,-15792.028,-15706.827,-15695.412
-15705.977,-15704.286,-15690.916,-15718.513,-15773.589,-15855.554,-15914.448,-15900.621,-15969.657,-16110.956,-16174.008,-16137.769,-16093.104,-16132.121,-16241.984,-16299.066,-16128.164,-15908.8,-16020.112,-16208.418,-16066.657,-15790.889,-15628.035,-15590.403,-15581.783
-15610.448,-15739.974,-15754.284,-15675.205,-15633.305,-15577.487,-15598.801,-15646.5205,-15671.065,-15684.051,-15662.688,-15662.992,-15690.715,-15833.816,-16027.177,-16027.75,-15867.592,-15749.882,-15699.407,-15646.985,-15658.0625,-15761.388,-15938.808,-16143.854,-16283.255
-16353.231,-16299.493,-16078.045,-15904.71,-15942.224,-16037.923,-16077.663,-15946.112,-15641.331,-15438.142,-15432.244,-15671.274,-15948.486,-15961.107,-15972.363,-16051.796,-16040.954,-16084.157,-16089.526,-15864.021,-15622.818,-15585.808,-15733.606,-15862.135,-15779.724
-15668.88,-15650.191,-15709.348,-15901.366,-16079.294,-16144.03,-16081.409,-15999.197,-16057.882,-16036.835,-15877.463,-15907.323,-16063.191,-15957.299,-15676.44,-15581.385,-15630.402,-15688.523,-15744.788,-15759.91,-15765.694,-15757.392,-15793.26,-15868.147,-15801.957
-15710.605,-15696.827,-15644.17,-15609.618,-15688.317,-15796.967,-15791.51,-15750.788,-15789.999,-15874.862,-15975.347,-16000.076,-15980.534,-15987.605,-15954.307,-15882.214,-15787.788,-15760.674,-15826.4,-15868.237,-15893.295,-15915.771,-16024.671,-16432.037,-16923.754
-16904.89,-16563.018,-16343.733,-15946.778,-15650.566,-15636.333,-15445.646,-15457.476,-15703.274,-15795.738,-15825.297,-15776.545,-15746.531,-15747.363,-15688.623,-15566.82,-15516.314,-15606.152,-15565.23,-15520.093,-15579.583,-15613.89,-15663.067,-15719.561,-15906.16
-16187.165,-16382.223,-16431.236,-16305.056,-16091.424,-15903.521,-15792.71,-15749.113,-15779.6455,-15947.5,-16218.138,-16197.665,-15843.033,-15708.056,-15699.316,-15584.638,-15574.474,-15589.278,-15526.835,-15480.988,-15532.531,-15638.129,-15750.834,-15871.717,-15904.75
-15929.741,-16023.692,-16070.498,-16059.379,-16036.621,-15983.032,-15951.838,-16101.714,-16398.371,-16662.377,-16628.312,-16094.65,-15543.472,-15431.806,-15472.705,-15521.402,-15698.622,-15896.053,-15981.691,-15980.573,-15928.148,-15772.575,-15650.619,-15724.647,-15870.624
-15954.194,-15867.382,-15707.526,-15578.454,-15431.224,-15430.48,-15469.203,-15497.032,-15642.675,-15818.841,-16269.105,-16921.457,-17236.412,-16973.613,-16342.511,-15808.485,-15525.094,-15408.673,-15352.715,-15372.788,-15431.694,-15469.894,-15663.363,-15910.541,-16072.589
-16107.278,-15987.794,-15818.964,-15749.448,-15898.636,-15981.54,-15878.84,-15809.177,-15857.049,-15895.418,-15785.194,-15766.2,-15787.095,-15752.043,-15887.867,-15979.899,-15828.164,-15712.014,-15840.289,-16057.757,-16219.044,-16162.211,-15906.741,-15707.457,-15516.172
-15497.414,-15635.369,-15622.283,-15632.849,-15735.399,-15888.812,-15952.333,-15796.432,-15653.825,-15610.384,-15674.623,-15771.919,-15797.543,-15854.839,-15996.933,-16032.163,-15775.874,-15532.745,-15495.975,-15530.591,-15678.872,-15857.6045,-15950.181,-15998.444,-16036.169
-16048.772,-15988.728,-15865.153,-15837.757,-16054.561,-16135.197,-15815.984,-15558.174,-15470.885,-15375.275,-15449.252,-15687.262,-16015.042,-16385.79,-16482.977,-16333.885,-16247.833,-16121.099,-15831.438,-15617.045,-15598.06,-15641.701,-15720.328,-15761.558,-15676.813
-15604.605,-15568.617,-15528.122,-15579.706,-15733.81,-15860.247,-15795.592,-15687.8955,-15784.233,-15829.57,-15688.299,-15602.647,-15612.576,-15708.955,-15825.801,-15883.205,-15951.792,-15976.265,-15914.765,-15817.117,-15729.221,-15709.709,-15701.417,-15676.005,-15667.719
-15639.428,-15628.858,-15659.601,-15688.291,-15765.928,-15862.594,-15958.332,-16136.66,-16188.936,-15991.705,-15804.107,-15674.136,-15619.23,-15696.9375,-15767.056,-15878.562,-16040.791,-16179.396,-16266.418,-16294.988,-16513.766,-16683.03,-16372.153,-15873.553,-15409.809
-15145.068,-15247.054,-15346.149,-15397.781,-15518.627,-15521.58,-15565.933,-15642.676,-15669.202,-15762.641,-15846.624,-15971.078,-16128.196,-16171.524,-16028.111,-15992.067,-16307.626,-16499.514,-16395.809,-16097.604,-15634.704,-15538.902,-15904.731,-16110.339,-15939.999
-15684.299,-15554.133,-15523.032,-15530.067,-15562.353,-15580.091,-15561.152,-15561.355,-15628.042,-15697.397,-15745.567,-15798.521,-15751.224,-15640.213,-15587.751,-15544.801,-15566.883,-15709.243,-15974.015,-16461.324,-16803.574,-16525.15,-16060.287,-15813.025,-15643.332
-15660.409,-15834.625,-16004.248,-16033.236,-15768.837,-15619.543,-15704.433,-15614.57,-15422.555,-15336.216,-15362.278,-15466.024,-15617.2,-15856.894,-16201.93,-16464.803,-16402.092,-16165.84,-16204.416,-16713.941,-17013.387,-16466.44,-15831.216,-15657.284,-15640.474
-15650.385,-15514.249,-15350.275,-15282.018,-15226.083,-15310.313,-15442.773,-15585.806,-15689.91,-15687.777,-15723.083,-15763.213,-15846.537,-15915.797,-15824.851,-15660.165,-15484.585,-15404.776,-15439.554,-15480.03,-15521.877,-15575.412,-15652.721,-15727.232,-15767.553
-15819.441,-15902.836,-16009.57,-16031.9795,-15946.761,-15975.986,-16042.738,-15916.011,-15733.527,-15623.192,-15616.12,-15780.162,-15940.771,-15892.818,-15771.163,-15718.827,-15726.61,-15891.854,-16121.401,-16183.404,-16118.205,-15972.299,-15805.895,-15640.202,-15476.112
-15473.642,-15498.876,-15464.058,-15508.702,-15568.93,-15632.548,-15791.596,-16170.301,-16641.734,-16726.445,-16344.21,-15863.083,-15465.963,-15212.747,-15223.514,-15389.744,-15503.806,-15652.644,-15922.564,-16092.073,-16022.056,-15889.848,-15887.669,-15967.942,-15920.826
-15741.807,-15730.666,-15889.411,-15884.015,-15778.8545,-15794.317,-15830.311,-15776.655,-15775.642,-15912.584,-16013.645,-16013.318,-15843.088,-15596.247,-15517.345,-15448.312,-15402.088,-15469.486,-15509.518,-15552.463,-15629.141,-15815.711,-16005.175,-15979.681,-15854.726
-15705.51,-15791.774,-16317.667,-16662.514,-16428.434,-15969.001,-15559.925,-15400.488,-15497.569,-15668.145,-16036.852,-16448.717,-16525.459,-16467.715,-16311.169,-15913.559,-15594.797,-15321.881,-15110.837,-15296.226,-15738.047,-16418.05,-16969.172,-16740.898,-16112.073
-15602.597,-15296.932,-15275.956,-15425.418,-15560.234,-15670.907,-15730.852,-15783.381,-15829.382,-15694.879,-15468.707,-15298.635,-15298.419,-15424.77,-15497.653,-15578.602,-15573.821,-15514.271,-15569.118,-15760.627,-16059.755,-16137.166,-16030.294,-16244.533,-16924.86
-17492.926,-17206.684,-16487.914,-16061.471,-15738.639,-15514.159,-15364.763,-15085.324,-15094.462,-15375.167,-15590.852,-15651.324,-15468.498,-15398.441,-15425.135,-15386.894,-15517.502,-15662.525,-15745.1875,-15731.484,-15570.844,-15452.262,-15394.625,-15418.121,-15484.277
-15552.377,-15658.014,-15731.013,-15819.554,-15914.561,-15967.5625,-16141.765,-16471.717,-16580.326,-16288.461,-15934.05,-15606.547,-15354.193,-15382.336,-15483.478,-15489.464,-15473.926,-15501.353,-15582.247,-15650.982,-15788.035,-16004.038,-16244.328,-16527.215,-16650.842
-16507.496,-16266.293,-15967.942,-15512.581,-15131.612,-15115.494,-15215.287,-15316.713,-15460.684,-15526.686,-15652.423,-15834.798,-16038.169,-16213.326,-16095.086,-15760.54,-15395.241,-15213.084,-15343.678,-15595.672,-15837.972,-15920.147,-15795.726,-15635.073,-15533.485
-15516.049,-15562.355,-15605.029,-15706.373,-15918.858,-15992.537,-15888.908,-15868.67,-15903.556,-15858.512,-15818.572,-15901.863,-15973.937,-15967.388,-16004.514,-16000.681,-16023.562,-16132.236,-15911.435,-15481.108,-15487.693,-15756.778,-15809.043,-15686.627,-15492.964
-15366.167,-15370.258,-15393.446,-15425.182,-15446.281,-15509.118,-15580.795,-15582.409,-15602.877,-15557.1,-15496.111,-15546.279,-15591.37,-15641.932,-15705.369,-15721.925,-15723.155,-15744.485,-15774.49,-15845.297,-16032.242,-16275.435,-16362.725,-16076.804,-15650.351
-15395.687,-15189.022,-15155.415,-15319.049,-15372.912,-15450.539,-15634.241,-15777.001,-15959.592,-16147.15,-16140.482,-15940.458,-15704.107,-15524.546,-15438.52,-15432.096,-15437.901,-15517.968,-15782.439,-16103.897,-16236.007,-16247.646,-16204.907,-15900.809,-15552.165
-15363.4,-15213.069,-15233.692,-15326.654,-15373.958,-15475.74,-15545.993,-15597.149,-15635.557,-15661.496,-15691.388,-15685.747,-15715.196,-15724.018,-15686.569,-15690.192,-15684.987,-15737.5625,-16004.09,-16229.613,-16162.027,-16084.375,-15954.463,-15595.529,-15397.188
-15413.118,-15519.912,-15723.226,-15749.356,-15671.898,-15698.675,-15685.541,-15568.081,-15429.265,-15348.976,-15296.858,-15242.11,-15257.272,-15401.329,-15583.415,-15692.9375,-15969.444,-16396.184,-16474.8,-16291.269,-16125.311,-15970.371,-16054.687,-16144.827,-15947.789
-15877.284,-15962.46,-15920.111,-15665.227,-15365.999,-15371.36,-15470.071,-15410.555,-15353.762,-15347.778,-15414.34,-15588.707,-15727.789,-15691.382,-15727.308,-15964.243,-16183.94,-16483.693,-16784.402,-16622.164,-16021.195,-15507.751,-15317.216,-15209.76,-15201.151
-15378.513,-15472.62,-15673.075,-16191.528,-16417.1,-16062.021,-15592.226,-15230.881,-14999.785,-15029.975,-15172.901,-15352.395,-15634.683,-15863.91,-16117.386,-16317.078,-16119.828,-15750.787,-15532.027,-15455.229,-15499.893,-15583.09,-15622.049,-15588.071,-15638.195
-15946.196,-16152.262,-16029.893,-15798.872,-15624.938,-15623.121,-15653.258,-15650.18,-15671.513,-15588.949,-15506.877,-15476.715,-15433.68,-15454.711,-15474.413,-15496.29,-15513.306,-15471.231,-15491.624,-15507.614,-15485.29,-15497.325,-15490.12,-15532.203,-15725.449
-16209.196,-16752.746,-16767.805,-16352.419,-15918.432,-15588.265,-15397.395,-15308.797,-15320.469,-15404.973,-15760.587,-16481.557,-16927.004,-16768.828,-16187.054,-15436.851,-15094.018,-15090.398,-15073.504,-15207.935,-15246.488,-15184.968,-15318.016,-15379.079,-15426.815
-15558.322,-15540.337,-15540.723,-15699.449,-15796.8955,-15786.231,-15755.473,-15641.494,-15525.827,-15489.142,-15445.267,-15409.416,-15423.983,-15572.856,-15814.77,-15824.94,-15518.069,-15324.236,-15452.512,-15676.569,-15934.138,-16164.018,-16304.98,-16414.734,-16408.04
-16314.141,-16294.859,-16263.044,-16059.457,-15860.824,-15783.28,-15629.089,-15433.798,-15308.813,-15253.085,-15284.39,-15259.697,-15229.405,-15257.078,-15246.428,-15289.04,-15308.9375,-15326.734,-15354.673,-15305.868,-15356.0,-15414.333,-15516.866,-15714.437,-15883.351
-16193.795,-16428.5,-16246.932,-15779.691,-15384.075,-15234.55,-15248.471,-15413.713,-15597.052,-15715.787,-15800.354,-15796.922,-15840.916,-16026.415,-16074.021,-15782.783,-15475.761,-15460.649,-15719.293,-15996.032,-15954.629,-15715.191,-15508.495,-15439.764,-15551.845
-15698.678,-15849.18,-15955.816,-16011.152,-15965.636,-15676.341,-15374.574,-15260.274,-15238.263,-15244.628,-15361.112,-15548.034,-15711.898,-15820.933,-15650.136,-15381.991,-15302.978,-15273.171,-15361.388,-15581.554,-15838.5625,-16007.205,-15936.126,-15826.62,-15697.683
-15606.963,-15713.846,-15790.181,-15864.739,-15825.483,-15533.324,-15435.369,-15563.294,-15566.993,-15472.638,-15627.533,-15946.679,-15968.163,-15993.677,-16424.807,-16695.904,-16237.192,-15504.867,-15099.909,-14956.779,-15001.312,-15139.292,-15213.112,-15304.084,-15384.31
-15441.139,-15494.048,-15478.536,-15446.206,-15456.613,-15535.036,-15593.511,-15591.95,-15632.021,-15716.342,-15802.015,-15863.072,-15903.874,-15789.635,-15562.896,-15550.757,-15725.369,-15906.984,-15894.579,-15660.104,-15500.469,-15522.457,-15671.765,-15711.702,-15564.457
-15422.25,-15302.894,-15240.0625,-15220.056,-15246.4795,-15323.454,-15375.643,-15437.954,-15534.68,-15709.314,-15882.463,-16071.29,-16506.979,-17006.492,-17120.145,-16785.195,-16383.065,-16126.258,-15703.239,-15063.829,-14772.944,-14866.78,-15012.663,-15243.151,-15393.527
-15534.978,-15717.73,-15649.718,-15658.582,-15886.636,-15981.644,-15761.6,-15343.589,-15129.053,-15069.199,-15052.998,-15160.675,-15207.6875,-15275.593,-15408.889,-15488.852,-15573.083,-15617.128,-15629.055,-15642.567,-15643.832,-15636.518,-15592.987,-15552.047,-15521.99
-15536.409,-15563.607,-15471.475,-15379.754,-15370.504,-15365.204,-15407.888,-15475.114,-15532.635,-15659.709,-15994.153,-16556.498,-17008.693,-17083.008,-16765.729,-16211.087,-15669.451,-15217.465,-15048.8955,-15216.394,-15390.775,-15399.278,-15299.013,-15227.227,-15271.837
-15449.5625,-15624.569,-15708.195,-15695.877,-15533.281,-15424.352,-15434.815,-15553.215,-15785.916,-15921.839,-16070.729,-16236.256,-16119.818,-15900.893,-15806.272,-15521.641,-15152.254,-15158.659,-15393.448,-15634.078,-15613.812,-15385.487,-15508.612,-16018.953,-16690.81
-17045.867,-16619.172,-15736.125,-15002.168,-14716.016,-14748.585,-14938.856,-15158.476,-15346.984,-15583.442,-15748.668,-15848.646,-16019.628,-16267.5625,-16448.83,-16325.342,-15917.094,-15516.681,-15376.2705,-15420.083,-15485.736,-15501.887,-15362.127,-15219.765,-15309.682
-15561.918,-16045.158,-16719.299,-16842.252,-16288.687,-15818.382,-15538.64,-15211.3,-15037.229,-15198.018,-15408.136,-15453.176,-15510.099,-15584.63,-15579.898,-15459.846,-15275.522,-15166.792,-15232.51,-15471.332,-15539.002,-15377.483,-15333.59,-15433.003,-15668.486
-16006.438,-16204.727,-16161.675,-16034.627,-15937.694,-15732.11,-15469.749,-15338.859,-15313.493,-15366.442,-15403.952,-15387.721,-15481.155,-15680.399,-15773.0,-15660.855,-15448.532,-15234.568,-15127.165,-15159.072,-15320.315,-15627.464,-15907.699,-16150.718,-16193.851
-15846.385,-15520.466,-15334.81,-15320.181,-15497.172,-15510.472,-15518.362,-15661.074,-15904.14,-16243.242,-16274.775,-15966.927,-15513.505,-15092.613,-14936.055,-14942.992,-15073.312,-15203.797,-15275.666,-15439.182,-15742.099,-16249.632,-16531.422,-16403.723,-16357.825
-16320.417,-16045.607,-15609.264,-15193.989,-15028.263,-15041.573,-15181.437,-15496.404,-15718.732,-15651.96,-15451.389,-15288.28,-15216.1045,-15242.653,-15363.696,-15507.991,-15542.432,-15513.383,-15497.559,-15420.306,-15448.146,-15782.062,-16123.018,-16103.622,-16000.859
-16117.808,-16003.848,-15586.306,-15300.29,-15101.601,-15048.831,-15150.732,-15213.242,-15299.909,-15346.716,-15367.316,-15377.453,-15346.859,-15367.848,-15354.331,-15359.303,-15411.951,-15460.361,-15619.101,-15893.118,-16255.142,-16755.059,-17167.729,-16827.746,-15942.37
-15424.493,-15150.069,-14956.168,-15039.114,-15144.641,-15206.763,-15275.592,-15297.077,-15305.649,-15294.443,-15267.93,-15240.963,-15231.002,-15237.24,-15249.589,-15269.297,-15281.807,-15337.113,-15514.531,-15951.741,-16620.428,-17066.22,-16912.637,-16284.005,-15688.043
-15393.633,-15189.121,-15089.48,-15153.836,-15267.261,-15525.799,-15785.463,-15737.388,-15438.138,-15196.397,-15162.047,-15160.182,-15160.816,-15226.31,-15254.681,-15269.166,-15340.131,-15433.824,-15543.954,-15723.3,-15937.893,-16086.371,-16060.839,-15815.715,-15723.148
-15985.261,-16163.986,-16040.755,-15710.555,-15407.656,-15412.459,-15620.097,-15759.067,-15571.238,-15166.728,-15013.088,-15082.838,-15193.317,-15501.734,-15870.469,-15930.915,-15758.771,-15560.158,-15322.688,-15176.826,-15182.405,-15205.43,-15259.135,-15488.435,-16136.089
-16812.604,-16610.967,-15737.526,-15081.19,-14925.398,-15175.559,-15498.813,-15615.837,-15712.189,-15849.886,-15921.825,-16024.654,-16164.32,-16212.08,-15966.452,-15607.326,-15511.222,-15460.304,-15362.228,-15293.216,-15182.15,-15204.197,-15253.493,-15158.627,-15114.869
-15164.53,-15229.308,-15319.012,-15389.965,-15414.268,-15445.55,-15467.349,-15498.25,-15646.23,-15931.268,-16088.69,-15890.467,-15595.425,-15325.45,-15101.476,-15098.411,-15169.788,-15370.872,-15780.773,-15993.582,-15881.076,-15794.314,-15946.417,-16123.033,-16123.424
-16004.59,-15935.781,-15876.871,-15655.238,-15448.43,-15308.439,-15202.186,-15170.84,-15149.677,-15222.26,-15294.472,-15345.898,-15421.85,-15429.43,-15464.971,-15479.201,-15454.851,-15466.951,-15433.179,-15317.613,-15191.124,-15157.95,-15181.079,-15202.778,-15228.243
-15250.669,-15299.205,-15381.314,-15509.702,-15671.782,-15737.654,-15700.107,-15719.397,-15716.637,-15567.436,-15430.16,-15369.113,-15323.407,-15338.803,-15404.549,-15453.622,-15495.359,-15593.845,-15784.921,-15892.196,-15732.122,-15515.049,-15463.799,-15456.519,-15497.085
-15597.102,-15551.587,-15598.629,-15840.212,-15868.693,-15714.873,-15495.928,-15251.15,-15166.175,-15257.282,-15510.78,-15845.377,-16228.574,-16404.357,-15954.639,-15334.239,-15057.478,-15017.621,-15191.78,-15320.278,-15230.859,-15230.769,-15322.828,-15414.963,-15521.849
-15541.434,-15685.011,-16117.652,-16370.004,-16116.66,-15660.706,-15373.585,-15382.658,-15463.838,-15303.792,-15060.973,-15068.866,-15281.623,-15438.17,-15392.858,-15321.123,-15358.822,-15335.903,-15354.237,-15527.569,-15659.933,-15671.186,-15635.484,-15581.268,-15401.507
-15252.224,-15224.27,-15201.47,-15398.025,-15659.359,-15774.074,-15924.299,-16018.782,-16123.101,-16365.334,-16555.568,-16565.268,-16255.338,-15682.595,-15133.301,-14770.759,-14996.807,-15729.229,-15987.516,-15714.005,-15467.893,-15296.438,-15393.995,-15596.754,-15463.269
-15139.486,-14889.049,-14824.506,-14917.914,-15129.579,-15428.42,-15549.803,-15443.199,-15337.953,-15304.771,-15351.498,-15443.889,-15510.947,-15546.169,-15553.631,-15560.042,-15485.319,-15325.868,-15261.117,-15257.038,-15304.8125,-15441.248,-15526.743,-15557.759,-15587.949
-15669.587,-15744.353,-15690.09,-15609.996,-15506.998,-15432.473,-15533.629,-15762.993,-16048.596,-16014.091,-15585.448,-15470.31,-15815.261,-16293.787,-16587.346,-16209.842,-15561.3955,-15226.732,-15023.701,-14894.955,-14845.532,-14944.007,-15184.251,-15333.351,-15479.295
-15655.552,-15652.134,-15415.644,-15292.549,-15425.147,-15390.422,-15225.434,-15152.129,-15094.501,-15158.594,-15310.436,-15503.781,-15739.13,-15887.238,-15991.27,-15897.737,-15600.524,-15458.281,-15419.732,-15407.951,-15550.995,-15832.459,-16048.155,-15929.441,-15790.175
-16001.229,-16163.028,-15904.535,-15325.224,-14953.001,-15079.863,-15197.498,-15179.405,-15220.139,-15240.551,-15278.906,-15266.362,-15243.707,-15270.24,-15244.138,-15250.289,-15325.162,-15464.985,-15526.89,-15391.1875,-15220.704,-15074.963,-15020.696,-15084.489,-15192.485
-15337.281,-15437.52,-15540.437,-15738.349,-15957.115,-16185.563,-16341.944,-16167.929,-15737.037,-15394.974,-15182.769,-15109.0205,-15156.711,-15126.432,-15057.895,-15137.644,-15451.964,-15737.719,-15731.076,-15582.741,-15551.312,-15914.046,-16254.673,-15948.984,-15445.071
-15194.962,-15071.868,-15078.485,-15281.847,-15510.475,-15516.292,-15345.641,-15194.337,-15132.401,-15134.137,-15162.119,-15212.317,-15261.251,-15303.775,-15319.262,-15294.75,-15320.719,-15408.658,-15484.661,-15533.889,-15685.378,-16057.738,-16359.609,-16264.637,-15919.397
-15589.307,-15448.571,-15439.053,-15296.005,-15226.886,-15468.6,-15685.285,-15723.174,-15602.537,-15395.041,-15442.369,-15642.494,-15576.59,-15327.404,-15235.905,-15399.022,-15594.94,-15604.112,-15564.225,-15555.111,-15426.559,-15329.136,-15470.882,-15653.167,-15588.488
-15350.403,-15147.955,-15035.509,-15090.05,-15234.724,-15326.178,-15402.337,-15446.518,-15432.377,-15376.185,-15322.6875,-15301.574,-15262.817,-15240.254,-15241.643,-15227.389,-15243.532,-15288.196,-15354.491,-15461.454,-15574.743,-15644.726,-15605.268,-15533.771,-15595.815
-15717.948,-15811.778,-15864.588,-15806.245,-15740.736,-15707.795,-15846.94,-16363.704,-16645.97,-16370.51,-15952.453,-15385.89,-14937.216,-14891.451,-14917.803,-15029.278,-15280.316,-15381.685,-15315.701,-15298.912,-15389.118,-15533.746,-15634.308,-15581.785,-15384.93
-15063.737,-14866.598,-14946.14,-15034.917,-15176.499,-15452.255,-15626.264,-15619.612,-15526.308,-15406.937,-15329.292,-15369.864,-15425.484,-15463.599,-15439.309,-15343.685,-15398.474,-15584.194,-15827.5625,-15843.353,-15483.965,-15178.149,-14984.798,-14968.881,-15184.788
-15371.361,-15610.195,-15784.892,-15767.345,-15835.758,-16002.634,-16212.537,-16393.268,-16091.176,-15472.883,-15348.574,-15599.711,-15689.611,-15494.544,-15169.686,-14991.246,-14852.1,-14821.423,-14977.519,-15174.782,-15424.77,-15475.803,-15422.128,-15497.498,-15576.978
-15643.255,-15682.798,-15728.242,-15755.918,-15799.646,-15800.846,-15603.973,-15428.4,-15343.744,-15405.321,-15599.879,-15589.171,-15452.662,-15262.975,-15065.128,-15137.551,-15318.605,-15370.637,-15298.377,-15256.632,-15284.479,-15216.155,-15123.954,-15105.062,-15319.985
-15609.596,-15535.374,-15342.109,-15253.78,-15234.494,-15349.322,-15438.654,-15414.608,-15409.823,-15586.643,-15929.384,-16080.805,-15801.663,-15407.231,-15241.411,-15312.424,-15454.381,-15483.548,-15659.224,-16049.771,-16128.026,-15922.592,-15763.046,-15638.778,-15578.658
-15480.754,-15345.765,-15291.138,-15224.993,-15340.403,-15509.918,-15378.935,-15171.242,-15036.052,-14995.943,-15030.443,-15076.044,-15063.905,-15003.105,-15046.926,-15083.106,-15170.956,-15350.252,-15556.104,-15799.31,-15864.606,-15972.635,-16195.456,-16120.897,-15779.656
-15548.105,-15451.219,-15177.612,-15036.348,-15178.877,-15207.361,-15149.406,-15077.005,-15119.171,-15332.485,-15607.942,-15786.641,-15710.5205,-15788.722,-16056.343,-16066.898,-15755.628,-15355.988,-15171.262,-15118.613,-15237.472,-15442.902,-15420.818,-15593.157,-16059.531
-16193.319,-15781.671,-15294.409,-15015.698,-14924.311,-15264.798,-15689.184,-15703.135,-15386.133,-14961.189,-14902.101,-15374.087,-16055.966,-16345.61,-16192.215,-16123.074,-15956.98,-15875.47,-16035.188,-15761.179,-15306.163,-15070.239,-14983.012,-15270.105,-15570.082
-15408.3,-15027.414,-14725.122,-14648.601,-14801.854,-15119.826,-15505.884,-15714.833,-15666.229,-15558.954,-15532.69,-15493.234,-15447.298,-15473.525,-15425.349,-15359.008,-15538.869,-15764.155,-15836.461,-16139.042,-16326.813,-15804.97,-15167.257,-14708.456,-14439.015
-14531.325,-14664.171,-14840.227,-15121.021,-15535.805,-16026.812,-16009.743,-15585.802,-15331.043,-15392.727,-15604.881,-15615.625,-15356.767,-15139.473,-15113.0,-15101.91,-15063.87,-15070.324,-15194.983,-15648.524,-16453.953,-16988.094,-16736.086,-16542.984,-16710.408
-16307.799,-15558.117,-15098.854,-15145.565,-15449.2295,-15284.139,-14980.839,-14853.556,-14732.824,-14860.459,-15052.234,-15240.069,-15413.641,-15360.754,-15317.309,-15305.378,-15119.558,-14829.684,-14678.472,-14686.853,-14787.81,-15064.735,-15384.008,-15623.913,-15728.85
-15696.477,-15575.653,-15405.58,-15359.68,-15342.346,-15296.297,-15284.629,-15202.576,-15135.883,-15090.827,-15035.638,-15027.575,-15010.147,-15008.2295,-15048.497,-15161.116,-15395.854,-15635.634,-15708.286,-15731.781,-16099.223,-16709.623,-16958.062,-16682.988,-16097.415
-15390.324,-14885.323,-14696.135,-14713.927,-14919.63,-15107.593,-15196.593,-15226.979,-15211.263,-15426.695,-15650.104,-15507.306,-15223.209,-14949.594,-14821.247,-14872.814,-14956.352,-15100.678,-15238.752,-15318.134,-15369.998,-15394.39,-15410.556,-15389.778,-15373.028
-15394.115,-15447.876,-15514.51,-15540.896,-15560.133,-15679.99,-15922.147,-15925.415,-15533.549,-15197.7705,-15121.318,-15209.274,-15288.363,-15223.998,-15174.013,-15185.555,-15246.506,-15320.717,-15355.542,-15450.118,-15449.353,-15243.217,-15029.05,-14936.979,-14936.091
-14968.499,-15021.083,-15042.165,-15105.821,-15325.554,-15680.783,-15927.515,-15866.437,-15745.658,-15645.954,-15600.441,-15774.1455,-16039.843,-16362.136,-16427.83,-15842.948,-15146.071,-14851.977,-14728.352,-14819.79,-15229.683,-15392.132,-15157.536,-14972.657,-14920.63
-14953.807,-15117.375,-15347.588,-15566.034,-15741.535,-15731.367,-15482.033,-15310.126,-15393.712,-15584.635,-15750.088,-15853.015,-15735.29,-15285.968,-14963.244,-14858.79,-14742.6455,-14849.428,-14977.232,-15029.2295,-15137.43,-15163.033,-15223.543,-15266.303,-15283.503
-15352.952,-15400.174,-15421.211,-15354.289,-15337.754,-15355.39,-15285.334,-15263.89,-15295.53,-15397.084,-15662.693,-16134.341,-16664.45,-16749.771,-16135.815,-15355.619,-14971.157,-14983.99,-15096.938,-15010.905,-14978.199,-15131.557,-15164.925,-15216.92,-15228.575
-15101.055,-15079.874,-15088.858,-15160.697,-15375.999,-15591.95,-15828.584,-16119.959,-16204.03,-15864.7705,-15449.861,-15343.115,-15466.127,-15505.615,-15249.866,-15016.707,-15038.323,-15040.365,-15054.476,-15130.368,-15112.83,-15097.717,-15067.68,-15004.047,-14971.655
-14933.384,-14927.395,-14932.057,-14961.477,-15033.506,-15101.928,-15203.086,-15337.76,-15548.814,-15791.518,-15862.5205,-15748.649,-15619.7705,-15525.149,-15437.15,-15488.865,-15761.994,-16111.008,-16404.904,-16526.09,-16189.906,-15538.024,-15134.987,-14949.532,-14806.237
-14762.3,-14776.532,-14933.331,-15117.338,-15219.408,-15349.765,-15460.032,-15668.392,-16038.385,-16333.46,-16351.902,-15956.907,-15303.445,-14741.327,-14407.832,-14347.441,-14532.655,-14765.461,-14925.873,-15048.131,-15183.336,-15357.436,-15496.28,-15588.662,-15747.014
-15925.302,-15959.833,-15785.348,-15583.491,-15496.731,-15514.529,-15731.672,-15758.839,-15293.681,-14854.624,-14655.074,-14664.506,-14822.911,-14946.367,-15107.331,-15209.288,-15247.724,-15284.712,-15243.245,-15219.77,-15192.645,-15250.836,-15407.0625,-15494.274,-15527.359
-15449.147,-15382.258,-15433.144,-15352.223,-15202.848,-15198.638,-15144.62,-15137.021,-15334.753,-15431.513,-15493.894,-15532.556,-15416.596,-15383.03,-15394.135,-15362.67,-15284.981,-15093.0625,-14926.023,-14922.702,-15114.99,-15400.872,-15457.781,-15214.841,-15056.4375
-15091.329,-15143.814,-15181.999,-15212.048,-15295.1875,-15436.251,-15553.75,-15599.63,-15685.688,-15772.39,-15618.914,-15471.703,-15405.359,-15258.393,-15274.376,-15359.672,-15461.367,-15714.098,-15947.578,-16161.251,-16129.714,-15670.417,-15200.855,-14942.926,-14952.372
-15197.264,-15406.2295,-15416.199,-15145.829,-14877.781,-14849.081,-14844.055,-14908.434,-15092.171,-15355.66,-15480.406,-15177.593,-14900.35,-14849.433,-14931.135,-15230.401,-15462.114,-15652.791,-15686.135,-15438.396,-15399.514,-15400.581,-15268.551,-15232.234,-15181.147
-15150.28,-15159.779,-15162.917,-15088.824,-14887.083,-14785.006,-14788.128,-14831.867,-14966.371,-15111.372,-15222.158,-15294.578,-15403.152,-15592.557,-15705.343,-15609.149,-15395.825,-15220.053,-15109.654,-15088.994,-15126.992,-15152.931,-15170.074,-15180.168,-15265.966
-15407.21,-15489.268,-15527.891,-15630.206,-15961.997,-16236.531,-15964.529,-15564.159,-15660.716,-15781.429,-15459.199,-15170.661,-15115.911,-15082.558,-14985.876,-14924.607,-15128.092,-15264.138,-15077.577,-14864.41,-14704.547,-14735.761,-15034.169,-15167.831,-14945.896
-14815.844,-14998.259,-15290.796,-15520.017,-15569.474,-15544.38,-15415.44,-15207.687,-15187.538,-15183.499,-15150.137,-15188.619,-15166.269,-15152.522,-15162.782,-15187.803,-15346.648,-15685.056,-15896.198,-15539.138,-14988.699,-14712.559,-14639.34,-14785.241,-14955.644
-14988.618,-15028.6875,-15132.958,-15207.592,-15164.747,-15141.26,-15139.492,-15120.324,-15112.595,-15049.75,-14991.755,-14913.536,-14847.523,-14830.854,-14814.506,-14880.715,-14964.586,-15052.289,-15175.313,-15317.444,-15547.135,-15740.771,-15750.759,-15623.192,-15490.577
-15404.804,-15280.353,-15134.833,-15093.302,-15111.753,-15103.979,-15208.353,-15373.371,-15429.022,-15497.031,-15451.878,-15151.008,-14941.329,-14992.129,-15150.221,-15207.859,-15137.759,-15295.965,-15672.076,-15823.884,-15606.395,-15248.856,-15076.86,-15083.628,-15202.995
-15398.787,-15411.104,-15196.034,-14946.891,-14904.871,-15170.286,-15649.727,-16272.712,-16682.648,-16326.854,-15450.177,-14897.892,-14735.305,-14717.037,-14909.126,-15094.162,-15186.921,-15208.072,-15105.236,-15077.946,-15148.247,-15189.036,-15150.314,-15218.507,-15615.828
-15853.844,-15542.785,-15057.327,-14745.592,-14750.105,-14997.105,-15276.55,-15443.373,-15349.007,-15117.698,-14994.154,-15024.297,-15147.289,-15289.024,-15350.374,-15221.017,-15036.828,-14939.332,-14878.212,-14860.288,-14896.29,-14996.642,-15178.881,-15389.055,-15555.0625
-15690.925,-15788.941,-15834.822,-15805.262,-15550.535,-15230.116,-15089.587,-15167.959,-15603.552,-16134.9375,-16119.672,-15483.197,-14877.891,-14620.118,-14513.126,-14592.488,-14730.074,-14841.059,-15098.618,-15338.038,-15352.315,-15212.586,-15127.614,-15085.112,-15084.609
-15220.447,-15460.434,-15787.715,-15842.499,-15616.28,-15530.456,-15502.463,-15335.424,-15029.748,-14854.427,-14838.186,-14855.929,-15061.049,-15280.38,-15387.283,-15396.845,-15337.505,-15361.885,-15363.622,-15363.289,-15511.959,-15634.222,-15446.567,-15112.91,-14996.298
-15030.227,-15116.485,-15145.297,-15050.432,-15072.266,-15164.638,-15168.973,-15125.815,-15066.936,-15030.729,-14981.574,-14955.826,-14959.373,-14936.786,-14965.473,-15007.868,-15052.98,-15147.353,-15257.499,-15380.917,-15475.139,-15520.113,-15502.543,-15437.758,-15415.942
-15498.454,-15682.79,-15779.288,-15680.447,-15520.341,-15297.702,-15083.215,-15003.968,-14973.802,-15047.609,-15203.442,-15301.403,-15245.226,-15042.963,-15011.518,-15057.056,-15015.749,-15047.443,-15057.355,-15068.639,-15129.134,-15288.365,-15554.48,-15610.296,-15507.702
-15501.245,-15389.995,-15099.622,-14970.917,-14991.017,-14985.834,-15049.532,-15173.5625,-15385.953,-15691.975,-15854.539,-15662.206,-15319.636,-15157.06,-15067.781,-15007.835,-14987.511,-14915.52,-14916.665,-14959.106,-15003.144,-15101.745,-15177.965,-15225.67,-15234.608
-15258.736,-15347.876,-15345.795,-15198.322,-15115.396,-15197.9375,-15218.858,-15177.405,-15218.318,-15190.215,-15156.585,-15182.854,-15123.861,-15073.407,-15066.877,-15080.009,-15126.63,-15151.153,-15174.728,-15206.219,-15403.458,-15911.919,-16373.347,-16422.45,-16295.207
-16141.112,-15666.74,-15069.198,-14727.928,-14649.506,-14908.334,-15324.229,-15544.044,-15412.26,-15087.118,-14924.683,-14823.329,-14745.768,-14786.038,-14850.807,-14993.746,-15074.114,-15139.941,-15285.962,-15279.323,-15159.8,-15061.332,-15008.12,-15029.804,-15230.733
-15514.143,-15750.707,-15974.094,-15910.554,-15593.595,-15371.844,-15284.871,-15271.874,-15320.106,-15488.667,-15547.642,-15393.251,-15331.491,-15295.307,-15208.072,-15164.565,-15178.457,-15371.41,-15533.983,-15500.588,-15407.146,-15169.365,-14959.0,-14912.589,-14863.682
-14874.488,-14873.98,-14841.438,-14887.907,-14929.9,-14989.882,-15061.038,-15200.757,-15579.502,-15961.379,-15873.212,-15332.575,-14867.652,-14744.79,-14848.628,-15003.929,-15119.763,-15213.967,-15265.342,-15318.035,-15397.585,-15436.408,-15394.797,-15297.363,-15258.528
