0.0,-14955.072,-42029.04,-24880.1,1584.872,-24477.148,-20632.758,-7599.6855,-26451.105,-13742.317,-18036.34,-23797.13,-13985.926,-25191.592,-17717.871,-20406.857,-22520.145,-16526.746,-22974.746,-16493.55,-19493.023,-18370.07,-15877.355,-19253.033,-14920.064
-18342.918,-16490.135,-17043.371,-18673.082,-16995.611,-19901.451,-18377.393,-19984.844,-20074.14,-19612.346,-20819.953,-19324.096,-20206.291,-19146.715,-18907.328,-18736.69,-17645.373,-18030.572,-17091.303,-17359.307,-17219.42,-17184.744,-17762.176,-17682.766,-18438.889
-18596.1,-19098.994,-19526.5,-19588.928,-19947.613,-19750.201,-19796.098,-19527.727,-19188.78,-18934.781,-18434.379,-18186.629,-17802.877,-17622.615,-17506.336,-17429.438,-17589.678,-17719.898,-18042.125,-18338.625,-18668.66,-19010.24,-19237.988,-19481.559,-19566.244
-19582.287,-19509.258,-19342.713,-19119.234,-18812.096,-18533.975,-18236.47,-17991.324,-17820.803,-17719.312,-17724.984,-17777.592,-17923.299,-18137.41,-18393.506,-18667.77,-18910.664,-19120.664,-19260.787,-19351.55,-19373.512,-19297.607,-19165.84,-18986.213,-18767.883
-18539.08,-18320.195,-18130.748,-17998.586,-17923.318,-17916.422,-17988.865,-18103.65,-18258.502,-18441.145,-18633.336,-18829.035,-18983.068,-19093.354,-19155.594,-19158.604,-19122.012,-19019.824,-18875.01,-18723.242,-18549.748,-18387.889,-18255.645,-18159.996,-18116.332
-18112.42,-18154.602,-18238.807,-18352.088,-18489.758,-18631.258,-18758.617,-18867.762,-18956.627,-19000.871,-18992.564,-18956.645,-18891.354,-18795.625,-18681.887,-18556.863,-18444.264,-18356.477,-18298.207,-18270.404,-18267.021,-18299.66,-18355.4,-18421.95,-18514.152
-18620.43,-18719.03,-18791.672,-18829.867,-18858.94,-18875.412,-18843.47,-18784.23,-18726.879,-18660.61,-18585.01,-18508.27,-18443.625,-18406.5,-18395.518,-18399.959,-18416.729,-18451.945,-18496.555,-18544.3,-18608.492,-18669.709,-18701.73,-18722.125,-18740.055
-18739.99,-18721.318,-18696.736,-18664.55,-18625.66,-18587.518,-18545.383,-18511.023,-18488.621,-18479.361,-18498.125,-18512.363,-18513.264,-18538.094,-18570.145,-18589.635,-18609.057,-18628.445,-18640.295,-18643.916,-18642.78,-18638.814,-18634.17,-18618.19,-18597.945
-18590.238,-18578.861,-18566.6,-18559.549,-18558.605,-18569.68,-18568.543,-18567.63,-18578.973,-18576.352,-18571.518,-18577.275,-18588.129,-18587.236,-18574.297,-18568.783,-18566.232,-18573.441,-18582.959,-18590.61,-18596.402,-18589.059,-18604.053,-18628.309,-18636.412
-18643.357,-18642.29,-18639.014,-18618.875,-18601.365,-18591.87,-18548.73,-18529.29,-18531.834,-18517.586,-18518.775,-18522.104,-18534.732,-18551.395,-18566.674,-18604.338,-18628.957,-18641.635,-18659.693,-18670.94,-18672.621,-18666.96,-18657.97,-18635.14,-18610.658
-18588.557,-18557.55,-18530.172,-18507.293,-18492.28,-18492.086,-18496.615,-18507.123,-18532.887,-18565.498,-18594.709,-18619.602,-18646.273,-18668.184,-18679.893,-18696.148,-18694.406,-18664.793,-18639.93,-18617.45,-18583.693,-18548.332,-18521.865,-18491.86,-18467.145
-18471.691,-18488.938,-18503.332,-18517.014,-18554.693,-18600.639,-18619.025,-18657.002,-18700.332,-18712.193,-18724.252,-18713.95,-18681.213,-18654.553,-18624.387,-18586.943,-18544.555,-18512.51,-18488.033,-18463.264,-18458.19,-18479.035,-18506.477,-18521.617,-18551.492
-18610.541,-18654.586,-18692.46,-18727.29,-18731.023,-18743.807,-18743.807,-18706.111,-18674.273,-18631.668,-18582.332,-18539.51,-18501.674,-18483.062,-18466.443,-18456.7,-18463.604,-18487.205,-18524.502,-18559.275,-18599.65,-18644.863,-18690.643,-18730.309,-18742.523
-18739.34,-18732.887,-18709.576,-18671.98,-18626.832,-18580.053,-18551.588,-18524.45,-18486.285,-18464.217,-18453.248,-18462.303,-18492.578,-18521.94,-18565.672,-18603.951,-18634.695,-18681.686,-18709.637,-18718.914,-18729.547,-18724.59,-18699.434,-18666.59,-18633.057
-18585.697,-18541.793,-18513.322,-18478.738,-18467.62,-18478.355,-18483.977,-18503.898,-18530.04,-18558.846,-18594.572,-18635.979,-18687.002,-18714.19,-18716.553,-18723.525,-18714.025,-18682.938,-18654.283,-18622.693,-18588.656,-18553.219,-18517.984,-18499.664,-18489.033
-18486.006,-18490.89,-18497.36,-18524.227,-18569.082,-18619.287,-18651.492,-18658.033,-18676.727,-18700.223,-18706.729,-18698.1,-18671.158,-18643.426,-18613.996,-18579.742,-18552.834,-18530.068,-18515.451,-18494.943,-18478.607,-18489.469,-18503.703,-18529.016,-18566.367
-18592.168,-18623.06,-18660.025,-18682.598,-18688.89,-18689.938,-18686.256,-18666.324,-18643.762,-18623.842,-18591.71,-18557.463,-18525.703,-18508.924,-18508.844,-18498.43,-18505.959,-18532.402,-18549.566,-18582.818,-18614.629,-18631.021,-18656.213,-18674.885,-18678.855
-18683.51,-18685.691,-18671.256,-18647.133,-18624.107,-18596.572,-18563.266,-18534.049,-18517.512,-18513.674,-18514.764,-18515.346,-18535.113,-18560.922,-18570.707,-18593.428,-18612.3,-18620.549,-18643.438,-18658.295,-18669.352,-18670.316,-18638.533,-18615.682,-18609.281
-18591.914,-18574.047,-18551.182,-18527.531,-18515.23,-18503.096,-18501.83,-18516.535,-18539.375,-18561.24,-18574.234,-18591.469,-18622.69,-18654.459,-18656.87,-18645.295,-18643.256,-18635.441,-18627.725,-18610.299,-18580.535,-18563.264,-18554.174,-18546.957,-18535.623
-18528.06,-18535.547,-18541.205,-18552.633,-18570.104,-18578.695,-18605.738,-18635.533,-18636.098,-18638.504,-18643.0,-18636.318,-18635.01,-18628.947,-18603.65,-18582.12,-18576.527,-18565.174,-18554.2,-18550.256,-18542.293,-18542.441,-18541.344,-18541.95,-18572.303
-18595.38,-18595.63,-18616.059,-18630.305,-18623.307,-18631.146,-18626.033,-18614.742,-18629.875,-18623.846,-18596.87,-18586.486,-18575.734,-18563.576,-18562.424,-18557.328,-18552.748,-18558.098,-18561.955,-18573.604,-18589.686,-18602.152,-18613.506,-18613.836,-18621.203
-18628.084,-18616.979,-18614.248,-18613.826,-18600.543,-18593.256,-18589.385,-18576.61,-18575.766,-18570.373,-18550.22,-18562.174,-18588.738,-18594.367,-18583.045,-18581.248,-18599.734,-18598.951,-18601.99,-18614.54,-18606.453,-18606.705,-18603.094,-18599.854,-18604.56
-18590.428,-18586.01,-18586.377,-18572.877,-18577.01,-18588.102,-18582.453,-18581.605,-18581.992,-18584.455,-18599.543,-18595.262,-18596.91,-18620.576,-18622.79,-18614.768,-18614.357,-18613.973,-18608.621,-18602.26,-18595.541,-18586.623,-18588.742,-18587.355,-18571.002
-18574.71,-18595.572,-18589.639,-18581.799,-18594.328,-18593.586,-18591.78,-18597.588,-18592.855,-18586.889,-18594.947,-18605.66,-18596.06,-18590.67,-18598.812,-18593.43,-18591.014,-18595.076,-18582.875,-18571.646,-18573.842,-18578.836,-18587.807,-18593.188,-18593.01
-18592.963,-18591.758,-18592.99,-18593.94,-18596.44,-18595.99,-18597.193,-18608.463,-18610.982,-18612.11,-18606.057,-18590.47,-18597.418,-18599.477,-18589.402,-18586.3,-18578.697,-18589.08,-18599.287,-18583.998,-18586.264,-18597.379,-18592.768,-18598.584,-18604.705
-18594.879,-18591.764,-18604.791,-18611.645,-18593.621,-18581.846,-18586.646,-18588.197,-18596.076,-18595.535,-18587.55,-18591.96,-18593.389,-18586.033,-18581.996,-18588.125,-18590.402,-18592.672,-18594.344,-18586.852,-18597.92,-18602.12,-18591.027,-18596.361,-18596.611
-18599.264,-18601.027,-18591.162,-18595.74,-18599.314,-18598.742,-18605.182,-18600.287,-18591.082,-18597.559,-18607.93,-18602.97,-18585.668,-18577.367,-18583.543,-18582.023,-18578.416,-18584.865,-18589.006,-18594.945,-18597.62,-18587.203,-18590.266,-18606.062,-18597.812
-18588.04,-18597.31,-18600.652,-18605.986,-18601.977,-18590.582,-18601.59,-18607.01,-18604.645,-18601.182,-18596.291,-18599.379,-18585.666,-18588.018,-18606.635,-18596.402,-18590.342,-18593.36,-18596.637,-18603.03,-18601.89,-18598.438,-18598.24,-18602.195,-18592.135
-18581.688,-18585.617,-18584.047,-18583.727,-18590.004,-18602.078,-18604.803,-18588.291,-18585.793,-18600.6,-18598.531,-18589.979,-18601.293,-18610.807,-18608.094,-18609.354,-18612.168,-18607.213,-18600.748,-18599.383,-18593.947,-18582.977,-18578.125,-18586.207,-18587.627
-18580.176,-18579.123,-18574.346,-18576.016,-18586.973,-18585.4,-18571.662,-18576.043,-18591.25,-18583.783,-18581.668,-18579.13,-18571.045,-18581.47,-18579.545,-18577.117,-18578.885,-18570.477,-18575.488,-18579.164,-18576.26,-18573.633,-18569.44,-18575.184,-18576.188
-18568.488,-18574.459,-18584.365,-18582.17,-18579.557,-18575.059,-18575.83,-18588.814,-18588.623,-18587.746,-18590.748,-18578.633,-18568.838,-18561.488,-18564.352,-18576.553,-18570.799,-18571.066,-18582.152,-18584.586,-18582.041,-18577.303,-18581.879,-18583.63,-18577.777
-18578.807,-18580.752,-18579.893,-18580.91,-18588.76,-18586.652,-18577.514,-18575.89,-18566.883,-18562.086,-18574.29,-18584.525,-18572.705,-18564.738,-18581.857,-18586.838,-18582.756,-18585.66,-18594.236,-18604.1,-18596.057,-18594.873,-18595.475,-18581.488,-18578.248
-18571.174,-18563.523,-18570.488,-18575.795,-18574.482,-18573.082,-18576.09,-18573.56,-18573.627,-18583.299,-18586.6,-18583.191,-18581.06,-18588.22,-18586.754,-18568.393,-18565.012,-18573.473,-18569.566,-18570.68,-18595.467,-18601.613,-18576.354,-18559.518,-18560.432
-18590.998,-18610.596,-18583.982,-18571.066,-18580.22,-18584.219,-18582.154,-18578.043,-18585.182,-18596.424,-18591.664,-18570.611,-18564.271,-18576.652,-18580.604,-18581.69,-18587.164,-18585.89,-18579.535,-18582.178,-18586.006,-18582.803,-18581.262,-18574.049,-18572.104
-18581.258,-18583.309,-18588.08,-18589.4,-18574.846,-18576.691,-18601.68,-18603.043,-18582.105,-18582.94,-18588.607,-18583.592,-18585.322,-18584.754,-18577.514,-18574.604,-18585.406,-18592.594,-18587.807,-18594.354,-18596.88,-18584.64,-18576.19,-18577.91,-18580.242
-18576.176,-18581.436,-18593.318,-18601.994,-18593.48,-18574.348,-18579.01,-18582.287,-18576.285,-18581.494,-18581.13,-18581.42,-18589.348,-18584.87,-18579.44,-18592.32,-18594.008,-18580.578,-18575.178,-18575.555,-18585.27,-18596.299,-18599.322,-18596.303,-18591.32
-18595.037,-18600.893,-18592.732,-18582.246,-18587.078,-18589.072,-18580.299,-18568.068,-18560.512,-18567.508,-18583.371,-18605.996,-18602.719,-18579.111,-18586.291,-18591.139,-18576.45,-18573.703,-18576.209,-18582.748,-18594.309,-18586.725,-18568.693,-18572.057,-18580.865
-18585.28,-18598.889,-18602.371,-18585.592,-18581.623,-18604.52,-18618.938,-18617.11,-18611.559,-18603.412,-18603.135,-18600.895,-18595.72,-18595.44,-18593.238,-18587.88,-18581.934,-18586.447,-18590.496,-18585.982,-18585.92,-18579.195,-18574.885,-18588.25,-18585.94
-18571.98,-18584.805,-18594.209,-18586.506,-18592.096,-18594.596,-18593.113,-18595.926,-18585.434,-18583.326,-18598.078,-18601.135,-18591.924,-18578.924,-18572.73,-18585.107,-18600.86,-18596.951,-18580.494,-18580.326,-18584.338,-18584.191,-18593.377,-18596.68,-18597.338
-18593.719,-18588.025,-18589.867,-18589.193,-18591.006,-18585.709,-18581.604,-18585.494,-18585.633,-18591.33,-18593.834,-18593.51,-18594.193,-18590.244,-18581.887,-18583.723,-18600.303,-18600.238,-18600.06,-18601.826,-18581.477,-18577.338,-18591.084,-18595.537,-18596.63
-18597.95,-18594.398,-18585.322,-18578.617,-18577.547,-18579.951,-18580.615,-18587.398,-18595.168,-18582.56,-18577.705,-18591.678,-18589.484,-18588.186,-18598.447,-18588.168,-18581.244,-18589.291,-18589.984,-18595.004,-18594.547,-18591.123,-18584.156,-18567.191,-18577.004
-18591.943,-18587.871,-18581.611,-18574.271,-18574.906,-18577.727,-18579.445,-18571.172,-18558.088,-18569.42,-18583.652,-18583.463,-18573.07,-18572.863,-18591.676,-18586.451,-18570.092,-18567.74,-18565.494,-18571.014,-18580.678,-18583.31,-18576.723,-18569.34,-18561.73
-18560.79,-18574.523,-18570.896,-18569.682,-18579.37,-18571.965,-18579.469,-18584.395,-18575.816,-18580.176,-18577.668,-18577.89,-18583.498,-18580.729,-18578.383,-18581.877,-18595.059,-18599.652,-18590.844,-18592.445,-18598.586,-18589.467,-18583.627,-18591.318,-18586.348
-18581.945,-18592.885,-18594.082,-18587.262,-18590.678,-18597.777,-18596.143,-18598.139,-18596.309,-18584.916,-18595.941,-18603.15,-18590.346,-18595.68,-18603.303,-18594.814,-18591.594,-18596.55,-18592.516,-18583.86,-18584.803,-18592.836,-18592.176,-18578.785,-18578.191
-18579.809,-18569.998,-18577.52,-18583.89,-18573.896,-18575.414,-18580.855,-18577.408,-18573.883,-18579.58,-18584.69,-18575.014,-18573.893,-18574.545,-18562.992,-18569.133,-18578.447,-18580.002,-18590.889,-18591.572,-18582.97,-18584.291,-18588.096,-18593.746,-18595.857
-18583.197,-18578.697,-18587.271,-18582.164,-18571.688,-18569.777,-18568.398,-18576.045,-18589.014,-18584.023,-18573.719,-18580.398,-18590.086,-18583.08,-18581.824,-18594.34,-18592.08,-18588.408,-18586.049,-18586.3,-18599.576,-18586.996,-18569.094,-18576.87,-18579.828
-18578.055,-18580.635,-18583.227,-18585.082,-18582.848,-18578.162,-18580.717,-18583.943,-18586.8,-18598.775,-18598.47,-18583.969,-18575.732,-18581.045,-18593.67,-18598.656,-18596.666,-18588.473,-18582.777,-18585.652,-18586.021,-18581.936,-18584.326,-18597.926,-18594.068
-18581.586,-18582.783,-18577.723,-18583.115,-18593.904,-18593.168,-18587.922,-18577.121,-18585.395,-18585.85,-18575.22,-18589.469,-18593.174,-18592.324,-18598.26,-18599.281,-18603.064,-18593.623,-18585.904,-18589.895,-18582.818,-18574.023,-18581.799,-18589.379,-18588.418
-18594.09,-18593.74,-18586.477,-18578.723,-18570.012,-18572.045,-18582.242,-18591.768,-18585.883,-18581.77,-18587.254,-18586.105,-18599.477,-18605.217,-18587.176,-18579.943,-18580.22,-18578.504,-18579.316,-18578.127,-18578.006,-18584.867,-18585.523,-18584.05,-18592.07
-18587.766,-18577.338,-18580.441,-18584.09,-18582.715,-18585.97,-18598.562,-18605.953,-18600.86,-18585.723,-18571.748,-18582.773,-18593.291,-18586.404,-18580.729,-18576.174,-18580.629,-18581.797,-18576.639,-18585.717,-18592.404,-18576.152,-18565.041,-18589.756,-18601.406
-18587.207,-18587.656,-18583.604,-18580.664,-18583.426,-18571.406,-18572.246,-18586.865,-18580.844,-18570.37,-18584.184,-18592.865,-18583.734,-18582.322,-18586.52,-18597.871,-18603.0,-18578.016,-18565.104,-18583.611,-18589.32,-18581.682,-18572.07,-18569.154,-18587.568
-18595.686,-18590.658,-18585.209,-18585.777,-18598.275,-18588.047,-18583.396,-18595.27,-18590.088,-18587.854,-18582.953,-18581.822,-18580.742,-18578.3,-18594.451,-18592.65,-18580.457,-18580.738,-18586.473,-18590.826,-18587.756,-18585.729,-18579.396,-18583.371,-18593.303
-18585.521,-18578.074,-18586.068,-18586.951,-18577.729,-18590.701,-18591.443,-18572.178,-18571.031,-18570.736,-18569.402,-18563.12,-18562.31,-18575.451,-18573.58,-18567.39,-18567.81,-18574.06,-18579.764,-18574.395,-18571.023,-18563.469,-18551.404,-18557.713,-18572.582
-18572.564,-18571.666,-18578.586,-18568.768,-18564.88,-18585.367,-18590.129,-18586.232,-18583.812,-18573.924,-18583.422,-18592.97,-18582.219,-18581.566,-18588.516,-18585.178,-18578.62,-18574.664,-18568.865,-18575.61,-18588.322,-18580.55,-18576.027,-18580.328,-18575.473
-18576.21,-18583.55,-18580.77,-18578.373,-18587.33,-18583.11,-18572.111,-18573.775,-18578.162,-18581.006,-18581.25,-18583.09,-18577.098,-18570.809,-18574.875,-18576.248,-18586.416,-18594.904,-18591.191,-18584.46,-18574.521,-18575.49,-18586.525,-18588.287,-18572.885
-18564.398,-18567.857,-18569.217,-18583.889,-18584.898,-18569.186,-18571.156,-18572.031,-18578.348,-18585.59,-18571.594,-18561.406,-18558.611,-18561.682,-18570.684,-18571.814,-18570.799,-18571.557,-18576.064,-18577.38,-18569.809,-18565.785,-18567.037,-18575.213,-18581.697
-18580.627,-18581.895,-18578.998,-18576.47,-18577.84,-18586.37,-18603.764,-18594.402,-18570.754,-18573.023,-18576.562,-18572.326,-18579.314,-18583.893,-18580.121,-18570.87,-18566.334,-18579.43,-18583.389,-18580.453,-18583.87,-18575.889,-18574.74,-18586.56,-18589.38
-18582.65,-18575.32,-18578.826,-18589.268,-18582.9,-18574.713,-18584.467,-18583.666,-18584.543,-18590.516,-18575.637,-18570.03,-18576.688,-18577.303,-18567.176,-18557.475,-18571.48,-18579.742,-18578.203,-18581.586,-18573.752,-18567.234,-18567.865,-18568.422,-18566.984
-18564.56,-18568.99,-18580.613,-18587.828,-18581.48,-18582.207,-18586.543,-18582.447,-18584.09,-18585.186,-18589.197,-18592.63,-18589.934,-18582.201,-18574.502,-18592.434,-18604.72,-18591.498,-18586.006,-18585.299,-18575.4,-18574.744,-18583.809,-18569.992,-18564.768
-18577.68,-18574.021,-18568.94,-18556.166,-18556.865,-18570.697,-18561.033,-18556.553,-18551.533,-18547.635,-18557.023,-18558.816,-18566.938,-18568.555,-18559.346,-18561.203,-18561.498,-18569.041,-18583.236,-18574.61,-18558.037,-18557.523,-18563.873,-18570.459,-18572.748
-18571.033,-18569.541,-18562.47,-18565.414,-18577.969,-18574.135,-18564.156,-18566.828,-18572.768,-18567.322,-18567.11,-18574.123,-18568.455,-18567.004,-18571.746,-18570.559,-18566.916,-18568.08,-18574.326,-18572.973,-18577.53,-18580.68,-18573.127,-18576.166,-18581.328
-18591.123,-18591.941,-18578.926,-18581.432,-18573.938,-18567.65,-18580.213,-18581.43,-18589.744,-18585.969,-18558.77,-18570.918,-18593.68,-18586.21,-18583.957,-18575.982,-18572.832,-18583.377,-18572.207,-18573.037,-18576.316,-18569.24,-18585.555,-18594.738,-18586.756
-18580.824,-18592.121,-18600.213,-18595.707,-18593.225,-18576.215,-18576.252,-18585.725,-18584.83,-18582.885,-18573.297,-18583.008,-18586.305,-18580.371,-18582.717,-18573.484,-18572.078,-18571.018,-18572.477,-18582.68,-18586.264,-18583.375,-18570.115,-18565.713,-18570.943
-18579.475,-18581.58,-18569.69,-18570.277,-18570.322,-18571.738,-18578.473,-18572.695,-18574.623,-18576.09,-18575.945,-18582.834,-18580.047,-18578.838,-18582.137,-18583.207,-18585.2,-18580.264,-18571.457,-18574.15,-18583.902,-18579.037,-18572.7,-18580.102,-18579.258
-18584.422,-18595.836,-18587.637,-18583.867,-18582.773,-18577.82,-18584.637,-18592.059,-18592.121,-18582.521,-18577.98,-18579.404,-18571.193,-18575.766,-18588.82,-18579.367,-18582.516,-18602.75,-18590.143,-18585.498,-18591.508,-18581.418,-18587.695,-18575.225,-18562.62
-18574.14,-18572.453,-18577.152,-18577.95,-18571.588,-18569.828,-18564.379,-18564.87,-18567.248,-18572.346,-18575.852,-18575.664,-18575.973,-18576.059,-18585.086,-18588.008,-18581.193,-18584.932,-18589.088,-18588.107,-18588.762,-18589.182,-18591.42,-18588.05,-18585.777
-18588.633,-18585.988,-18582.344,-18572.137,-18572.47,-18587.9,-18584.62,-18574.771,-18573.82,-18577.123,-18578.3,-18566.72,-18563.24,-18571.59,-18568.352,-18564.805,-18570.234,-18572.309,-18578.057,-18579.72,-18571.82,-18579.697,-18581.818,-18575.535,-18585.193
-18586.055,-18578.871,-18574.967,-18580.54,-18582.35,-18571.65,-18580.955,-18583.932,-18581.285,-18589.0,-18576.162,-18567.01,-18569.193,-18574.615,-18578.357,-18576.729,-18585.664,-18576.852,-18569.988,-18582.158,-18573.973,-18575.168,-18584.914,-18579.842,-18582.623
-18580.463,-18574.795,-18578.896,-18579.94,-18579.62,-18581.783,-18580.578,-18574.361,-18572.375,-18575.057,-18575.879,-18574.697,-18576.02,-18584.303,-18588.262,-18584.84,-18581.547,-18579.174,-18580.373,-18588.969,-18599.137,-18597.258,-18588.996,-18584.924,-18581.512
-18577.197,-18579.008,-18584.22,-18581.1,-18577.793,-18589.293,-18604.252,-18584.02,-18559.266,-18574.496,-18579.717,-18579.625,-18587.854,-18578.21,-18578.02,-18575.793,-18564.83,-18578.562,-18591.748,-18575.922,-18568.055,-18582.75,-18587.863,-18584.322,-18581.797
-18583.346,-18578.178,-18570.342,-18580.375,-18582.947,-18572.795,-18566.02,-18568.646,-18566.402,-18559.95,-18584.043,-18595.123,-18571.182,-18565.67,-18575.514,-18580.467,-18583.664,-18586.014,-18586.656,-18579.963,-18579.475,-18579.7,-18561.227,-18564.176,-18576.742
-18568.621,-18571.928,-18575.219,-18575.11,-18571.84,-18569.904,-18583.91,-18583.979,-18584.59,-18585.473,-18577.266,-18584.826,-18584.238,-18574.611,-18570.729,-18568.785,-18573.06,-18578.236,-18582.799,-18578.55,-18570.994,-18571.906,-18571.957,-18574.691,-18577.44
-18573.217,-18574.568,-18580.088,-18571.475,-18561.588,-18572.992,-18579.744,-18573.477,-18574.49,-18574.736,-18575.768,-18581.38,-18577.268,-18569.158,-18582.463,-18589.283,-18570.836,-18576.85,-18583.162,-18569.91,-18570.463,-18566.44,-18563.57,-18571.336,-18569.7
-18559.207,-18557.918,-18566.127,-18571.408,-18583.021,-18582.402,-18576.256,-18592.895,-18593.572,-18578.17,-18577.576,-18571.814,-18561.246,-18570.83,-18583.156,-18578.0,-18574.725,-18572.65,-18569.004,-18574.55,-18576.24,-18575.678,-18569.445,-18564.014,-18571.55
-18563.387,-18559.035,-18572.559,-18571.553,-18567.406,-18567.383,-18568.719,-18576.488,-18577.79,-18576.145,-18576.502,-18570.209,-18569.074,-18574.486,-18570.361,-18563.217,-18563.734,-18572.05,-18574.883,-18562.482,-18564.229,-18574.955,-18563.588,-18569.959,-18587.041
-18570.756,-18557.418,-18562.834,-18574.803,-18578.63,-18571.578,-18572.438,-18562.764,-18559.732,-18570.066,-18556.746,-18546.066,-18558.617,-18571.475,-18570.877,-18569.285,-18571.18,-18565.262,-18559.947,-18554.484,-18554.643,-18565.582,-18575.607,-18569.092,-18541.107
-18551.95,-18591.295,-18572.676,-18546.418,-18564.545,-18569.314,-18564.086,-18571.656,-18562.777,-18559.193,-18570.004,-18563.441,-18559.88,-18565.002,-18565.629,-18563.361,-18555.639,-18552.654,-18547.975,-18545.379,-18549.566,-18548.014,-18553.822,-18562.994,-18569.412
-18570.639,-18562.693,-18564.408,-18566.188,-18565.457,-18570.371,-18563.953,-18556.842,-18559.932,-18560.664,-18562.791,-18569.73,-18566.773,-18563.45,-18570.213,-18566.75,-18562.768,-18565.912,-18563.598,-18560.908,-18563.549,-18573.014,-18567.65,-18558.414,-18564.973
-18566.17,-18572.363,-18572.957,-18562.252,-18559.893,-18557.926,-18563.303,-18567.238,-18564.86,-18565.771,-18571.078,-18566.738,-18548.836,-18566.748,-18590.066,-18574.29,-18563.086,-18560.37,-18557.15,-18554.602,-18552.537,-18561.22,-18566.504,-18561.375,-18556.318
-18553.441,-18553.695,-18567.338,-18580.54,-18573.268,-18573.164,-18582.367,-18573.23,-18560.428,-18558.086,-18554.504,-18548.795,-18555.832,-18562.643,-18558.828,-18562.932,-18558.516,-18544.473,-18547.361,-18563.9,-18573.078,-18558.725,-18552.99,-18563.955,-18565.34
-18567.176,-18565.297,-18563.596,-18560.785,-18553.648,-18562.932,-18566.445,-18562.447,-18564.965,-18559.348,-18551.11,-18546.88,-18556.463,-18578.33,-18576.576,-18546.916,-18542.54,-18563.127,-18562.518,-18559.387,-18560.32,-18558.52,-18564.71,-18558.373,-18551.654
-18557.152,-18558.146,-18558.812,-18556.271,-18552.133,-18552.016,-18553.12,-18559.42,-18566.271,-18569.863,-18570.73,-18565.28,-18565.21,-18579.209,-18579.197,-18570.305,-18574.46,-18555.857,-18540.15,-18558.95,-18565.244,-18563.467,-18560.715,-18558.336,-18568.623
-18561.023,-18552.527,-18560.773,-18559.113,-18551.332,-18549.08,-18551.404,-18548.154,-18550.975,-18561.898,-18561.34,-18560.45,-18550.31,-18544.484,-18560.31,-18561.002,-18561.076,-18566.582,-18558.145,-18556.965,-18556.96,-18557.178,-18568.098,-18570.45,-18566.895
-18568.986,-18568.586,-18564.969,-18561.965,-18560.482,-18561.756,-18561.643,-18558.232,-18555.562,-18557.645,-18560.35,-18560.44,-18561.889,-18560.898,-18558.139,-18552.184,-18549.0,-18558.312,-18562.578,-18565.115,-18563.416,-18551.209,-18554.104,-18561.947,-18566.78
-18568.164,-18560.63,-18557.695,-18558.049,-18565.584,-18569.912,-18571.547,-18573.87,-18558.336,-18553.346,-18556.58,-18553.137,-18560.76,-18562.312,-18552.768,-18545.627,-18545.164,-18546.693,-18545.426,-18541.318,-18539.064,-18550.121,-18546.977,-18526.594,-18529.266
-18539.14,-18544.572,-18555.615,-18557.867,-18558.227,-18557.947,-18553.0,-18555.203,-18553.686,-18549.646,-18553.033,-18555.791,-18561.732,-18564.965,-18558.076,-18564.174,-18575.973,-18565.383,-18554.523,-18555.926,-18554.945,-18553.574,-18553.67,-18557.883,-18557.145
-18552.45,-18559.83,-18565.125,-18565.896,-18568.227,-18561.531,-18559.8,-18565.426,-18562.295,-18558.227,-18549.709,-18543.74,-18551.244,-18553.104,-18558.832,-18568.002,-18566.389,-18567.861,-18565.955,-18554.285,-18552.125,-18559.691,-18559.451,-18565.184,-18574.076
-18558.74,-18541.873,-18553.121,-18576.906,-18578.803,-18560.652,-18546.125,-18543.764,-18547.66,-18552.984,-18567.83,-18566.703,-18552.623,-18558.537,-18556.97,-18550.934,-18558.998,-18547.918,-18538.725,-18555.494,-18554.55,-18549.566,-18556.719,-18558.697,-18568.799
-18566.098,-18560.174,-18567.078,-18557.89,-18550.758,-18553.951,-18557.883,-18560.469,-18557.102,-18559.355,-18560.43,-18559.896,-18561.322,-18554.557,-18556.607,-18565.588,-18562.295,-18559.584,-18556.832,-18551.691,-18551.309,-18553.117,-18560.596,-18558.748,-18551.352
-18553.432,-18554.016,-18559.459,-18564.006,-18553.252,-18548.018,-18565.693,-18572.662,-18557.99,-18558.428,-18564.375,-18561.34,-18553.205,-18550.31,-18562.176,-18562.215,-18553.24,-18550.693,-18550.121,-18551.342,-18551.846,-18558.305,-18562.96,-18562.504,-18562.979
-18552.643,-18552.951,-18572.627,-18565.695,-18548.035,-18553.748,-18552.021,-18542.969,-18541.771,-18550.242,-18559.176,-18552.25,-18553.82,-18553.926,-18546.328,-18554.283,-18561.5,-18561.568,-18555.201,-18556.268,-18559.023,-18548.338,-18549.94,-18556.166,-18554.797
-18554.271,-18551.045,-18544.533,-18551.201,-18557.797,-18545.049,-18551.467,-18552.824,-18534.686,-18543.73,-18556.998,-18564.71,-18563.947,-18551.66,-18546.35,-18543.396,-18549.025,-18549.873,-18548.762,-18551.104,-18542.611,-18546.762,-18554.525,-18559.918,-18571.6
-18569.604,-18562.568,-18557.018,-18556.02,-18559.766,-18564.459,-18575.973,-18572.13,-18564.26,-18559.129,-18544.697,-18555.074,-18565.715,-18557.873,-18559.78,-18549.352,-18532.6,-18535.936,-18549.393,-18553.52,-18550.332,-18557.72,-18559.766,-18555.375,-18554.498
-18552.055,-18551.674,-18542.725,-18544.93,-18557.205,-18554.316,-18559.232,-18556.957,-18550.57,-18564.48,-18562.246,-18549.484,-18552.178,-18557.998,-18554.28,-18544.758,-18548.152,-18558.432,-18560.053,-18549.605,-18544.754,-18560.816,-18569.475,-18561.688,-18550.889
-18548.07,-18550.713,-18545.682,-18547.107,-18552.59,-18554.07,-18554.035,-18555.01,-18560.48,-18555.268,-18544.268,-18539.54,-18542.477,-18546.35,-18544.107,-18548.566,-18554.207,-18554.566,-18552.516,-18546.154,-18538.459,-18537.982,-18551.6,-18558.535,-18560.63
-18558.078,-18540.863,-18548.79,-18554.75,-18541.797,-18554.53,-18554.791,-18542.771,-18548.324,-18552.342,-18552.275,-18552.152,-18561.611,-18560.492,-18549.596,-18546.734,-18547.72,-18563.902,-18568.166,-18563.207,-18558.14,-18544.744,-18554.867,-18564.465,-18557.807
-18545.564,-18540.354,-18556.6,-18550.482,-18541.752,-18553.607,-18553.46,-18559.184,-18559.086,-18550.643,-18555.643,-18553.07,-18547.154,-18546.447,-18553.62,-18561.781,-18556.078,-18554.734,-18555.209,-18553.82,-18561.1,-18567.283,-18566.475,-18555.416,-18540.16
-18537.72,-18544.76,-18544.123,-18543.86,-18546.42,-18553.287,-18569.799,-18558.893,-18539.096,-18544.67,-18546.0,-18550.389,-18565.066,-18570.545,-18568.879,-18569.553,-18574.096,-18576.127,-18575.172,-18564.752,-18556.209,-18571.645,-18585.791,-18581.371,-18576.277
-18577.697,-18580.068,-18572.824,-18565.398,-18565.59,-18556.541,-18551.377,-18561.918,-18570.793,-18577.059,-18566.945,-18551.756,-18558.268,-18553.277,-18545.762,-18557.89,-18563.219,-18555.309,-18540.35,-18542.088,-18547.828,-18537.008,-18544.32,-18556.303,-18553.377
-18553.893,-18551.803,-18549.994,-18557.664,-18563.762,-18556.465,-18549.1,-18552.373,-18545.865,-18539.434,-18538.67,-18533.537,-18541.842,-18547.385,-18542.06,-18542.191,-18543.707,-18549.47,-18554.568,-18554.705,-18542.045,-18519.992,-18530.062,-18553.824,-18555.643
-18560.057,-18554.488,-18543.312,-18552.156,-18550.656,-18549.283,-18555.871,-18552.121,-18553.604,-18549.904,-18540.197,-18543.293,-18549.156,-18548.496,-18546.83,-18545.922,-18546.14,-18553.326,-18558.145,-18558.906,-18555.05,-18548.594,-18554.611,-18553.658,-18545.506
-18553.158,-18577.803,-18584.531,-18554.984,-18556.555,-18569.365,-18552.928,-18559.008,-18559.574,-18559.615,-18575.945,-18563.607,-18564.338,-18574.227,-18559.514,-18557.773,-18562.47,-18554.74,-18548.238,-18557.225,-18563.428,-18554.324,-18557.742,-18563.793,-18559.455
-18555.97,-18552.016,-18553.541,-18555.25,-18557.312,-18557.281,-18544.824,-18552.014,-18574.13,-18570.54,-18552.227,-18546.475,-18559.451,-18568.764,-18566.66,-18566.451,-18564.281,-18564.05,-18567.535,-18562.953,-18552.854,-18555.174,-18562.68,-18561.746,-18564.938
-18562.297,-18552.893,-18554.842,-18558.758,-18564.37,-18568.586,-18565.766,-18568.016,-18562.543,-18556.902,-18565.457,-18564.027,-18563.97,-18562.219,-18544.559,-18537.176,-18540.463,-18556.611,-18560.969,-18533.64,-18535.518,-18571.516,-18582.83,-18562.027,-18559.518
-18572.87,-18551.234,-18541.387,-18557.18,-18556.363,-18561.977,-18564.037,-18566.13,-18575.217,-18558.941,-18546.527,-18561.75,-18572.771,-18565.793,-18568.85,-18569.312,-18560.484,-18573.277,-18576.8,-18570.295,-18566.152,-18556.047,-18559.068,-18559.963,-18559.318
-18569.035,-18578.662,-18582.924,-18580.244,-18581.252,-18583.008,-18579.09,-18577.729,-18579.23,-18573.348,-18565.441,-18561.816,-18561.904,-18566.576,-18562.758,-18565.229,-18573.088,-18565.2,-18564.78,-18576.074,-18581.416,-18571.291,-18564.902,-18568.812,-18556.668
-18557.703,-18569.277,-18569.166,-18587.295,-18598.256,-18571.527,-18545.848,-18551.94,-18557.643,-18558.05,-18569.262,-18567.115,-18570.035,-18566.254,-18546.992,-18557.139,-18564.15,-18552.322,-18552.002,-18557.514,-18552.086,-18547.795,-18560.703,-18563.682,-18563.777
-18570.676,-18565.295,-18562.709,-18561.912,-18558.104,-18557.09,-18556.764,-18557.018,-18557.736,-18565.637,-18577.197,-18583.98,-18573.314,-18566.027,-18579.402,-18571.031,-18566.416,-18581.193,-18574.312,-18570.357,-18568.814,-18564.707,-18563.78,-18554.414,-18557.617
-18560.979,-18563.395,-18568.902,-18567.01,-18568.738,-18566.846,-18570.768,-18570.08,-18565.926,-18572.225,-18575.164,-18581.623,-18574.455,-18573.428,-18587.5,-18574.459,-18555.967,-18560.635,-18573.924,-18570.64,-18562.379,-18552.111,-18549.549,-18575.713,-18578.756
-18564.639,-18565.076,-18559.46,-18561.506,-18572.744,-18569.139,-18558.535,-18564.562,-18573.812,-18580.38,-18573.879,-18553.043,-18561.7,-18573.008,-18572.504,-18571.34,-18558.455,-18560.764,-18565.02,-18563.291,-18561.918,-18560.725,-18574.193,-18581.158,-18578.318
-18564.809,-18554.445,-18564.475,-18563.576,-18562.064,-18560.146,-18550.473,-18555.873,-18556.953,-18557.34,-18569.06,-18572.13,-18565.242,-18550.871,-18543.11,-18559.537,-18576.078,-18568.367,-18559.229,-18554.324,-18545.676,-18557.055,-18566.473,-18563.064,-18572.508
-18565.88,-18557.773,-18565.62,-18562.125,-18570.232,-18576.26,-18568.107,-18566.568,-18556.553,-18552.713,-18555.117,-18553.432,-18556.777,-18553.34,-18551.77,-18547.963,-18544.053,-18556.523,-18558.316,-18554.477,-18558.664,-18551.355,-18547.887,-18560.598,-18566.47
-18554.34,-18543.82,-18549.404,-18557.088,-18557.014,-18552.941,-18557.938,-18563.45,-18552.594,-18550.875,-18557.229,-18547.414,-18538.48,-18545.04,-18551.875,-18550.213,-18554.959,-18555.266,-18544.486,-18551.2,-18559.248,-18553.908,-18556.111,-18559.094,-18553.746
-18548.5,-18553.568,-18559.607,-18558.527,-18560.197,-18556.168,-18548.592,-18547.928,-18552.55,-18558.209,-18557.094,-18557.64,-18560.342,-18554.756,-18546.516,-18550.404,-18563.943,-18560.916,-18543.447,-18540.643,-18546.326,-18543.764,-18549.078,-18554.922,-18552.307
-18550.645,-18543.465,-18550.307,-18558.07,-18557.385,-18566.516,-18557.01,-18547.023,-18546.078,-18543.336,-18552.523,-18555.646,-18558.809,-18545.137,-18526.486,-18555.54,-18576.396,-18559.047,-18550.188,-18554.877,-18560.525,-18558.941,-18539.318,-18524.572,-18545.785
-18563.246,-18556.125,-18555.186,-18547.078,-18549.348,-18566.178,-18551.326,-18538.736,-18545.416,-18544.672,-18544.52,-18544.916,-18548.139,-18547.305,-18539.75,-18537.361,-18532.59,-18524.557,-18526.62,-18541.44,-18543.25,-18537.668,-18540.578,-18534.137,-18538.549
-18544.326,-18535.443,-18542.52,-18543.838,-18538.666,-18544.172,-18536.656,-18534.738,-18547.838,-18549.168,-18546.105,-18546.121,-18544.527,-18548.498,-18555.379,-18557.037,-18549.854,-18542.248,-18541.35,-18545.809,-18554.85,-18549.344,-18543.082,-18550.836,-18543.701
-18535.07,-18542.455,-18551.64,-18555.158,-18560.13,-18565.625,-18558.229,-18560.473,-18560.639,-18547.85,-18559.82,-18563.658,-18549.592,-18551.37,-18561.822,-18572.46,-18568.193,-18567.746,-18572.357,-18561.14,-18561.752,-18562.77,-18557.826,-18558.645,-18552.488
-18552.545,-18551.492,-18544.652,-18548.738,-18554.182,-18555.2,-18556.232,-18557.086,-18556.117,-18558.277,-18561.605,-18560.69,-18556.174,-18547.617,-18548.025,-18553.078,-18554.307,-18556.697,-18547.166,-18537.338,-18542.822,-18550.537,-18560.707,-18566.426,-18558.494
-18557.447,-18562.83,-18556.334,-18551.527,-18551.46,-18554.395,-18560.826,-18557.484,-18563.371,-18567.0,-18555.643,-18563.336,-18568.572,-18563.656,-18565.479,-18560.275,-18558.68,-18555.95,-18552.148,-18562.389,-18564.355,-18557.467,-18558.668,-18560.574,-18557.953
-18553.96,-18551.166,-18551.35,-18552.64,-18554.988,-18562.145,-18569.75,-18579.396,-18579.71,-18555.904,-18541.469,-18546.121,-18545.42,-18546.295,-18552.75,-18555.549,-18550.635,-18539.93,-18540.197,-18550.062,-18547.408,-18545.45,-18551.582,-18549.857,-18546.496
-18550.03,-18556.168,-18554.121,-18555.25,-18554.705,-18546.238,-18551.795,-18550.256,-18546.125,-18549.857,-18547.225,-18553.18,-18562.137,-18570.406,-18561.725,-18546.295,-18554.344,-18551.668,-18545.604,-18548.64,-18543.555,-18543.447,-18545.21,-18541.883,-18535.877
-18534.93,-18536.277,-18536.342,-18537.498,-18535.445,-18540.104,-18539.877,-18542.268,-18553.902,-18554.902,-18559.414,-18551.62,-18542.133,-18550.37,-18544.229,-18536.652,-18536.902,-18544.75,-18550.953,-18538.125,-18531.79,-18539.55,-18556.195,-18562.574,-18552.742
-18546.447,-18541.738,-18551.908,-18559.338,-18548.877,-18540.738,-18536.74,-18545.373,-18546.799,-18537.258,-18538.865,-18543.805,-18545.248,-18537.453,-18538.39,-18545.004,-18541.611,-18545.713,-18549.73,-18549.95,-18548.176,-18547.758,-18547.928,-18536.572,-18537.188
-18551.44,-18561.746,-18551.098,-18534.787,-18549.54,-18549.994,-18543.48,-18554.76,-18552.646,-18560.854,-18559.312,-18549.176,-18559.746,-18560.33,-18562.635,-18563.084,-18548.773,-18534.402,-18529.32,-18538.492,-18534.467,-18530.39,-18543.41,-18547.281,-18545.707
-18538.848,-18538.695,-18551.781,-18547.865,-18548.85,-18553.078,-18534.61,-18533.662,-18534.674,-18529.152,-18540.436,-18530.408,-18533.8,-18554.934,-18544.025,-18539.701,-18545.05,-18551.576,-18550.809,-18524.5,-18521.531,-18547.678,-18556.564,-18544.371,-18541.84
-18543.326,-18534.484,-18536.299,-18538.242,-18540.701,-18550.523,-18549.6,-18549.695,-18555.736,-18553.88,-18555.336,-18565.29,-18551.04,-18536.107,-18546.275,-18546.01,-18552.473,-18554.9,-18547.457,-18555.38,-18546.39,-18542.146,-18545.012,-18537.742,-18547.057
-18550.344,-18545.256,-18542.857,-18537.08,-18540.78,-18543.299,-18533.86,-18528.598,-18528.873,-18529.64,-18536.883,-18541.488,-18540.363,-18536.621,-18534.352,-18540.973,-18540.074,-18535.918,-18542.66,-18542.293,-18536.3,-18539.578,-18540.627,-18541.252,-18545.574
-18534.898,-18525.512,-18527.482,-18527.473,-18534.941,-18535.84,-18536.385,-18552.252,-18551.883,-18545.56,-18544.486,-18537.324,-18542.39,-18548.69,-18547.094,-18544.475,-18539.893,-18542.188,-18543.432,-18541.877,-18540.715,-18539.68,-18543.2,-18542.854,-18542.537
-18544.078,-18545.55,-18548.275,-18541.748,-18536.523,-18539.96,-18542.031,-18541.164,-18541.523,-18546.887,-18546.27,-18548.92,-18553.266,-18541.059,-18539.71,-18541.309,-18535.973,-18543.836,-18546.19,-18541.984,-18534.977,-18536.088,-18552.611,-18553.826,-18550.445
-18553.607,-18548.088,-18542.117,-18544.129,-18551.21,-18552.39,-18549.803,-18553.043,-18549.736,-18538.35,-18538.482,-18547.805,-18550.773,-18550.043,-18550.379,-18545.111,-18541.227,-18552.254,-18557.389,-18547.508,-18542.262,-18541.822,-18542.17,-18536.64,-18541.422
-18556.4,-18548.133,-18547.107,-18546.855,-18532.12,-18542.941,-18547.213,-18540.102,-18539.527,-18540.592,-18551.701,-18549.945,-18546.557,-18537.541,-18529.303,-18540.963,-18536.39,-18537.037,-18542.916,-18542.332,-18548.604,-18538.16,-18531.215,-18536.473,-18540.916
-18546.844,-18545.861,-18546.744,-18554.455,-18555.717,-18547.895,-18546.557,-18550.53,-18548.604,-18538.977,-18529.35,-18531.352,-18536.389,-18538.48,-18541.93,-18549.355,-18544.184,-18529.26,-18531.326,-18534.451,-18535.467,-18539.758,-18543.102,-18545.527,-18539.904
-18542.05,-18543.322,-18539.19,-18542.195,-18539.135,-18534.969,-18537.434,-18543.256,-18543.99,-18546.816,-18549.957,-18543.926,-18550.533,-18549.398,-18538.4,-18540.496,-18533.492,-18528.615,-18526.848,-18519.668,-18535.275,-18549.504,-18541.7,-18539.643,-18536.525
-18534.85,-18541.152,-18539.857,-18540.594,-18539.52,-18537.412,-18529.615,-18511.443,-18523.875,-18549.137,-18545.715,-18540.541,-18548.713,-18547.191,-18541.355,-18546.121,-18547.814,-18546.02,-18547.064,-18545.39,-18537.562,-18536.365,-18546.672,-18549.672,-18549.818
-18554.14,-18555.207,-18546.793,-18540.406,-18546.494,-18542.29,-18541.701,-18554.93,-18553.344,-18546.62,-18544.047,-18536.715,-18530.26,-18536.553,-18545.354,-18539.729,-18537.96,-18538.826,-18535.791,-18537.25,-18527.13,-18527.334,-18536.145,-18529.844,-18535.31
-18535.773,-18530.49,-18535.479,-18532.588,-18529.36,-18529.654,-18539.65,-18540.105,-18521.377,-18522.307,-18532.09,-18529.922,-18528.445,-18532.416,-18535.693,-18534.465,-18535.242,-18535.062,-18527.02,-18519.992,-18517.172,-18519.0,-18523.955,-18525.266,-18529.268
-18520.787,-18512.29,-18534.984,-18536.658,-18524.111,-18537.314,-18524.28,-18517.188,-18533.49,-18523.803,-18530.896,-18532.604,-18520.402,-18530.443,-18528.012,-18540.309,-18542.152,-18519.492,-18529.621,-18535.74,-18530.04,-18528.617,-18531.71,-18536.523,-18530.576
-18535.17,-18538.871,-18535.768,-18537.096,-18530.666,-18525.766,-18528.555,-18529.2,-18528.94,-18533.783,-18536.215,-18532.822,-18534.271,-18540.418,-18536.982,-18527.387,-18530.92,-18539.855,-18541.467,-18538.447,-18534.768,-18540.57,-18547.191,-18540.877,-18542.965
-18548.062,-18538.709,-18541.86,-18544.484,-18534.785,-18541.637,-18547.918,-18542.385,-18540.473,-18544.27,-18549.518,-18544.176,-18536.908,-18542.791,-18546.213,-18537.064,-18532.387,-18532.994,-18529.756,-18532.637,-18533.111,-18529.967,-18534.799,-18533.875,-18533.793
-18536.459,-18531.34,-18533.08,-18543.86,-18546.197,-18531.885,-18527.623,-18530.99,-18523.807,-18531.941,-18531.938,-18520.14,-18524.984,-18522.707,-18523.45,-18524.656,-18520.732,-18536.809,-18544.225,-18533.635,-18533.256,-18537.096,-18533.67,-18534.45,-18535.396
-18530.953,-18533.322,-18532.404,-18527.346,-18521.879,-18507.553,-18511.617,-18539.014,-18537.258,-18522.234,-18533.188,-18530.117,-18521.697,-18529.148,-18530.217,-18536.127,-18540.752,-18533.434,-18525.727,-18531.545,-18545.48,-18545.963,-18539.6,-18529.453,-18526.582
-18533.762,-18534.572,-18538.062,-18534.668,-18529.027,-18531.715,-18525.412,-18522.584,-18525.463,-18524.414,-18523.982,-18531.803,-18543.857,-18534.38,-18522.744,-18523.748,-18525.695,-18541.746,-18546.113,-18530.697,-18528.475,-18534.104,-18533.098,-18536.898,-18549.688
-18542.506,-18528.588,-18532.662,-18537.494,-18543.977,-18542.55,-18534.19,-18528.248,-18521.148,-18523.111,-18526.244,-18538.994,-18552.297,-18541.232,-18530.63,-18535.564,-18543.195,-18541.156,-18541.424,-18543.045,-18542.482,-18547.951,-18536.49,-18524.834,-18531.064
-18534.781,-18528.281,-18523.291,-18532.975,-18534.658,-18531.82,-18533.482,-18535.484,-18546.172,-18539.75,-18525.822,-18531.127,-18539.742,-18541.54,-18540.611,-18540.281,-18537.246,-18536.963,-18542.115,-18548.771,-18551.018,-18540.842,-18535.018,-18538.688,-18536.629
-18533.46,-18535.195,-18536.873,-18531.787,-18526.602,-18528.299,-18530.947,-18530.264,-18524.22,-18527.234,-18532.16,-18524.594,-18525.674,-18531.355,-18534.305,-18540.688,-18545.188,-18540.83,-18530.455,-18534.672,-18535.84,-18528.602,-18538.95,-18543.615,-18537.701
-18531.084,-18526.87,-18538.238,-18542.594,-18536.229,-18534.07,-18538.127,-18546.91,-18543.13,-18534.902,-18533.555,-18530.77,-18528.287,-18527.457,-18523.229,-18522.123,-18529.125,-18528.148,-18526.729,-18530.459,-18521.588,-18518.496,-18537.71,-18547.674,-18535.033
-18537.58,-18548.865,-18542.297,-18537.367,-18532.57,-18532.832,-18540.348,-18537.277,-18533.426,-18529.94,-18536.521,-18548.066,-18543.297,-18544.12,-18550.701,-18544.37,-18537.555,-18541.781,-18544.602,-18538.854,-18534.943,-18529.191,-18531.46,-18546.547,-18540.988
-18531.627,-18546.484,-18551.643,-18540.406,-18531.576,-18527.738,-18532.21,-18533.0,-18526.285,-18523.35,-18519.338,-18522.994,-18537.598,-18534.686,-18529.434,-18530.26,-18516.617,-18518.346,-18524.83,-18518.535,-18526.22,-18529.252,-18518.79,-18511.635,-18515.316
-18521.828,-18524.293,-18531.346,-18528.713,-18525.11,-18525.857,-18521.049,-18524.69,-18524.48,-18524.305,-18527.732,-18522.023,-18519.023,-18518.975,-18520.883,-18526.191,-18536.666,-18541.082,-18531.49,-18524.768,-18524.686,-18527.447,-18525.385,-18529.227,-18536.611
-18526.916,-18519.357,-18525.291,-18534.295,-18534.965,-18534.89,-18537.74,-18532.598,-18530.93,-18531.01,-18535.668,-18542.62,-18542.777,-18537.771,-18519.457,-18516.559,-18532.727,-18543.51,-18539.275,-18518.45,-18519.654,-18531.65,-18531.719,-18534.387,-18539.91
-18545.9,-18532.414,-18523.453,-18529.986,-18529.43,-18531.81,-18530.15,-18529.691,-18525.635,-18523.764,-18527.662,-18524.54,-18536.646,-18537.156,-18532.553,-18538.781,-18530.629,-18523.191,-18516.22,-18525.709,-18531.256,-18519.15,-18524.268,-18524.758,-18527.377
-18530.408,-18528.92,-18532.436,-18524.13,-18528.498,-18531.104,-18520.67,-18524.072,-18528.24,-18529.887,-18530.273,-18528.693,-18525.29,-18524.135,-18529.984,-18532.04,-18525.006,-18515.172,-18526.707,-18538.715,-18527.898,-18521.084,-18517.666,-18525.746,-18538.059
-18537.309,-18539.984,-18543.26,-18546.416,-18537.037,-18521.494,-18530.375,-18537.031,-18523.855,-18520.006,-18533.346,-18533.387,-18515.879,-18515.105,-18520.844,-18523.42,-18536.01,-18528.691,-18515.006,-18525.348,-18537.77,-18543.5,-18537.713,-18528.156,-18523.033
-18523.703,-18529.69,-18527.166,-18528.543,-18531.174,-18529.55,-18529.756,-18531.643,-18537.592,-18531.414,-18533.035,-18534.926,-18515.201,-18516.643,-18527.336,-18527.787,-18525.094,-18526.51,-18537.504,-18516.756,-18499.547,-18517.457,-18525.918,-18534.752,-18533.537
-18522.129,-18524.271,-18527.178,-18533.867,-18529.236,-18519.502,-18524.22,-18531.412,-18528.393,-18505.215,-18511.55,-18542.201,-18531.229,-18519.35,-18526.217,-18527.44,-18537.959,-18549.783,-18553.209,-18539.623,-18527.672,-18541.355,-18544.633,-18542.8,-18539.607
-18529.871,-18546.98,-18553.344,-18547.184,-18556.098,-18544.05,-18540.361,-18558.064,-18553.443,-18542.799,-18543.26,-18553.129,-18558.2,-18540.402,-18538.062,-18546.652,-18531.371,-18529.803,-18543.584,-18542.814,-18542.152,-18547.365,-18545.172,-18538.129,-18540.275
-18546.377,-18548.45,-18547.725,-18549.988,-18560.8,-18548.906,-18527.795,-18542.701,-18547.354,-18530.963,-18531.686,-18532.705,-18538.922,-18549.186,-18545.38,-18544.14,-18541.443,-18537.91,-18542.2,-18536.885,-18535.014,-18543.238,-18542.756,-18541.385,-18543.219
-18542.33,-18532.812,-18527.248,-18541.277,-18552.305,-18550.68,-18544.408,-18544.031,-18543.857,-18536.994,-18550.275,-18555.49,-18545.152,-18551.781,-18547.418,-18541.912,-18544.646,-18544.46,-18545.418,-18538.531,-18543.293,-18547.004,-18544.773,-18549.857,-18542.115
-18539.947,-18544.594,-18543.797,-18543.678,-18542.422,-18551.303,-18557.205,-18545.758,-18539.338,-18540.242,-18542.988,-18559.244,-18556.28,-18531.445,-18533.46,-18547.02,-18542.63,-18527.543,-18529.643,-18537.121,-18533.314,-18538.713,-18533.361,-18535.416,-18548.428
-18539.117,-18533.29,-18529.574,-18527.533,-18529.725,-18531.574,-18547.54,-18551.047,-18534.445,-18523.951,-18524.244,-18529.947,-18531.379,-18527.719,-18530.902,-18536.102,-18533.383,-18529.975,-18532.814,-18535.049,-18524.025,-18518.145,-18517.992,-18502.17,-18497.773
-18511.61,-18529.066,-18543.469,-18544.662,-18543.93,-18541.152,-18527.264,-18518.326,-18531.418,-18537.27,-18531.799,-18537.81,-18531.475,-18529.4,-18534.36,-18527.652,-18529.154,-18523.658,-18521.846,-18533.033,-18533.367,-18535.291,-18545.715,-18550.896,-18537.203
-18519.305,-18521.47,-18527.305,-18524.81,-18538.62,-18551.37,-18538.492,-18543.395,-18554.38,-18545.383,-18537.37,-18516.738,-18509.34,-18526.21,-18528.674,-18524.453,-18519.256,-18519.691,-18524.223,-18523.613,-18525.742,-18518.06,-18524.996,-18540.543,-18530.275
-18533.914,-18540.482,-18531.344,-18530.834,-18529.014,-18529.6,-18530.102,-18525.727,-18526.854,-18529.666,-18533.102,-18539.172,-18536.373,-18523.422,-18528.97,-18532.553,-18518.459,-18520.557,-18524.18,-18525.213,-18530.03,-18527.125,-18526.324,-18526.965,-18529.508
-18535.12,-18543.795,-18552.69,-18542.941,-18524.322,-18525.791,-18535.957,-18538.861,-18543.713,-18538.32,-18529.83,-18529.562,-18530.62,-18545.049,-18545.121,-18527.758,-18520.271,-18520.387,-18539.67,-18546.98,-18531.826,-18532.162,-18532.37,-18532.416,-18537.092
-18527.107,-18530.684,-18537.756,-18522.416,-18530.371,-18539.922,-18527.281,-18538.912,-18546.078,-18533.36,-18530.521,-18531.277,-18535.705,-18536.252,-18536.33,-18546.738,-18541.742,-18530.693,-18535.99,-18535.785,-18536.502,-18544.201,-18545.652,-18547.85,-18541.463
-18533.037,-18537.34,-18543.736,-18536.996,-18526.686,-18541.467,-18550.645,-18531.912,-18519.234,-18527.592,-18537.287,-18527.453,-18523.207,-18530.014,-18530.334,-18530.418,-18533.436,-18542.83,-18546.531,-18544.154,-18538.82,-18535.408,-18539.047,-18537.264,-18542.898
-18543.717,-18543.102,-18546.893,-18535.965,-18543.412,-18553.39,-18553.861,-18563.568,-18551.635,-18531.475,-18529.543,-18538.96,-18542.244,-18526.521,-18516.97,-18533.432,-18552.322,-18548.734,-18542.396,-18542.674,-18536.955,-18535.93,-18537.592,-18549.988,-18556.31
-18534.03,-18541.902,-18562.074,-18547.404,-18538.588,-18538.637,-18545.074,-18551.117,-18538.992,-18540.885,-18551.812,-18544.03,-18530.85,-18526.627,-18536.438,-18547.764,-18537.768,-18524.1,-18529.31,-18536.953,-18541.6,-18544.54,-18542.88,-18537.465,-18527.453
-18531.303,-18540.227,-18536.762,-18540.814,-18548.502,-18545.068,-18536.035,-18535.797,-18545.967,-18547.773,-18540.406,-18531.238,-18530.67,-18542.188,-18544.041,-18539.828,-18546.74,-18553.703,-18552.537,-18547.822,-18543.35,-18546.785,-18556.664,-18558.688,-18546.887
-18535.385,-18540.791,-18550.719,-18550.057,-18546.33,-18541.871,-18536.156,-18535.168,-18538.42,-18540.527,-18539.07,-18531.783,-18527.146,-18534.42,-18538.318,-18535.793,-18536.531,-18538.818,-18543.393,-18540.78,-18531.865,-18536.068,-18546.523,-18539.525,-18530.984
-18543.467,-18549.35,-18539.977,-18532.025,-18526.074,-18528.807,-18537.21,-18539.188,-18536.236,-18536.602,-18529.115,-18525.969,-18545.05,-18548.207,-18545.258,-18553.744,-18551.516,-18544.168,-18529.945,-18531.236,-18546.434,-18546.104,-18543.516,-18534.639,-18533.346
-18543.48,-18540.227,-18545.191,-18554.7,-18550.955,-18549.148,-18547.998,-18541.672,-18538.406,-18545.188,-18543.03,-18534.37,-18545.0,-18548.39,-18545.123,-18551.38,-18543.871,-18535.342,-18536.137,-18545.63,-18560.232,-18553.912,-18537.83,-18527.21,-18521.797
-18531.602,-18543.646,-18544.576,-18537.736,-18532.365,-18539.352,-18542.865,-18534.672,-18536.088,-18543.979,-18545.967,-18548.695,-18549.328,-18552.123,-18557.01,-18548.59,-18549.26,-18560.354,-18552.553,-18550.209,-18554.486,-18541.52,-18542.652,-18557.148,-18559.246
-18555.928,-18542.154,-18537.074,-18552.15,-18554.668,-18545.186,-18540.715,-18541.979,-18541.104,-18539.328,-18542.572,-18542.723,-18542.736,-18541.193,-18535.408,-18526.611,-18516.365,-18529.713,-18548.734,-18538.623,-18526.262,-18529.076,-18534.814,-18531.994,-18527.617
-18537.111,-18542.572,-18534.281,-18527.06,-18531.855,-18537.135,-18533.057,-18535.27,-18538.707,-18544.17,-18542.484,-18524.414,-18526.615,-18536.428,-18530.0,-18530.826,-18544.504,-18547.521,-18532.99,-18530.83,-18542.68,-18543.93,-18539.338,-18539.61,-18541.193
-18545.66,-18542.754,-18531.578,-18537.426,-18540.29,-18537.621,-18545.584,-18544.293,-18546.42,-18543.742,-18537.332,-18536.344,-18517.084,-18524.178,-18548.729,-18547.303,-18548.55,-18546.412,-18546.707,-18549.682,-18532.422,-18526.39,-18539.56,-18541.654,-18536.656
-18538.2,-18536.05,-18538.848,-18541.678,-18530.773,-18528.158,-18531.588,-18536.826,-18534.99,-18525.67,-18532.525,-18537.883,-18539.785,-18538.17,-18528.668,-18536.756,-18545.012,-18540.463,-18543.418,-18545.705,-18536.96,-18530.473,-18534.607,-18543.412,-18542.691
-18532.727,-18530.97,-18531.29,-18533.848,-18538.105,-18535.924,-18543.818,-18540.688,-18528.729,-18544.186,-18555.963,-18545.592,-18534.629,-18530.172,-18532.0,-18541.06,-18546.06,-18538.473,-18538.38,-18543.473,-18545.969,-18546.19,-18537.975,-18546.238,-18555.207
-18541.299,-18524.031,-18511.428,-18526.402,-18544.803,-18542.504,-18544.834,-18533.93,-18524.633,-18532.854,-18536.959,-18541.006,-18546.016,-18548.045,-18532.662,-18530.553,-18549.129,-18535.49,-18530.258,-18549.23,-18547.95,-18542.066,-18541.512,-18536.795,-18533.643
-18540.89,-18543.926,-18539.688,-18537.043,-18531.738,-18534.986,-18535.67,-18537.129,-18544.059,-18535.547,-18533.584,-18542.508,-18547.355,-18547.697,-18547.326,-18548.355,-18541.482,-18536.27,-18533.113,-18533.264,-18534.225,-18527.062,-18535.71,-18549.443,-18546.293
-18540.365,-18541.055,-18542.143,-18544.854,-18551.143,-18539.805,-18540.371,-18558.348,-18543.87,-18535.188,-18543.85,-18537.635,-18533.146,-18531.404,-18533.932,-18533.738,-18530.34,-18549.584,-18559.879,-18543.205,-18541.11,-18542.256,-18536.053,-18540.855,-18545.176
-18548.932,-18533.703,-18518.643,-18535.996,-18535.451,-18535.055,-18555.715,-18554.9,-18548.047,-18549.14,-18552.941,-18549.979,-18531.771,-18520.412,-18528.92,-18543.393,-18546.314,-18542.938,-18539.016,-18536.418,-18541.834,-18542.842,-18544.879,-18552.38,-18548.62
-18550.521,-18555.21,-18549.648,-18549.725,-18543.73,-18541.914,-18551.145,-18549.059,-18544.934,-18536.506,-18528.875,-18535.947,-18546.771,-18551.783,-18546.316,-18537.092,-18535.215,-18541.662,-18541.22,-18542.041,-18555.86,-18553.6,-18539.566,-18540.643,-18546.969
-18540.54,-18535.096,-18542.229,-18543.078,-18542.064,-18544.107,-18545.406,-18547.264,-18544.639,-18547.752,-18544.893,-18541.252,-18553.115,-18550.406,-18540.23,-18544.414,-18543.729,-18527.715,-18528.63,-18547.385,-18544.564,-18541.287,-18543.412,-18543.13,-18548.156
-18539.441,-18537.326,-18535.363,-18521.225,-18519.775,-18528.154,-18540.578,-18535.635,-18529.096,-18535.736,-18533.057,-18539.29,-18541.734,-18531.12,-18536.89,-18549.424,-18550.346,-18539.83,-18527.736,-18532.123,-18546.553,-18548.16,-18536.11,-18521.578,-18526.797
-18534.559,-18528.113,-18541.002,-18547.986,-18543.56,-18552.305,-18544.387,-18531.643,-18534.096,-18539.992,-18539.943,-18531.016,-18529.604,-18532.234,-18531.0,-18530.621,-18527.777,-18535.477,-18549.686,-18549.305,-18542.523,-18532.998,-18526.447,-18530.555,-18528.867
-18527.898,-18535.492,-18537.143,-18536.613,-18538.568,-18544.781,-18553.838,-18550.268,-18537.904,-18541.795,-18560.504,-18560.838,-18548.104,-18547.256,-18545.637,-18537.418,-18535.46,-18543.145,-18544.852,-18540.904,-18537.605,-18528.973,-18532.709,-18537.7,-18531.63
-18534.379,-18537.256,-18532.9,-18533.346,-18540.043,-18543.314,-18545.809,-18541.328,-18531.426,-18533.55,-18534.742,-18541.543,-18549.348,-18539.076,-18537.826,-18545.357,-18546.605,-18550.355,-18545.184,-18529.617,-18532.785,-18548.955,-18551.693,-18544.32,-18540.473
-18547.875,-18545.51,-18523.6,-18520.889,-18544.783,-18553.309,-18540.197,-18531.59,-18530.902,-18535.873,-18539.635,-18539.604,-18534.957,-18530.594,-18538.625,-18540.826,-18544.436,-18543.314,-18535.92,-18554.887,-18555.102,-18544.697,-18555.67,-18553.24,-18544.72
-18532.469,-18533.79,-18541.55,-18532.148,-18537.611,-18542.45,-18541.71,-18543.701,-18540.74,-18540.7,-18535.953,-18538.727,-18538.455,-18536.955,-18545.605,-18539.71,-18543.238,-18553.082,-18555.188,-18564.521,-18559.768,-18543.059,-18538.334,-18551.334,-18554.148
-18547.37,-18554.605,-18547.19,-18543.113,-18552.77,-18546.68,-18544.445,-18549.39,-18550.957,-18541.84,-18532.244,-18535.908,-18536.53,-18537.096,-18535.918,-18536.367,-18539.3,-18533.395,-18536.23,-18544.74,-18547.742,-18541.2,-18536.172,-18541.027,-18529.365
-18522.107,-18528.332,-18527.756,-18530.12,-18526.984,-18525.719,-18526.768,-18524.174,-18535.998,-18546.914,-18542.787,-18535.334,-18538.096,-18544.166,-18535.637,-18523.295,-18525.639,-18534.16,-18533.725,-18532.213,-18530.96,-18530.61,-18532.285,-18529.785,-18533.004
-18534.553,-18533.223,-18535.11,-18535.883,-18538.424,-18532.922,-18526.344,-18523.297,-18522.863,-18529.75,-18533.873,-18540.465,-18540.926,-18533.09,-18533.26,-18539.566,-18545.488,-18542.404,-18538.26,-18535.066,-18541.004,-18553.791,-18549.35,-18549.725,-18547.14
-18536.928,-18542.035,-18539.062,-18535.23,-18532.068,-18530.28,-18545.492,-18550.188,-18546.303,-18537.645,-18532.83,-18550.84,-18558.81,-18541.238,-18518.938,-18513.926,-18519.877,-18529.084,-18545.244,-18547.008,-18546.32,-18554.99,-18551.633,-18542.729,-18539.766
-18536.912,-18537.904,-18546.28,-18553.75,-18559.822,-18552.83,-18550.018,-18568.652,-18571.062,-18568.387,-18560.797,-18534.996,-18522.236,-18518.645,-18529.29,-18536.58,-18524.178,-18516.85,-18504.877,-18500.686,-18504.67,-18506.61,-18518.33,-18522.266,-18524.098
-18531.74,-18532.75,-18528.842,-18522.463,-18515.264,-18517.137,-18532.63,-18532.283,-18517.492,-18518.574,-18528.371,-18540.08,-18537.668,-18530.23,-18539.91,-18549.459,-18548.39,-18519.076,-18507.164,-18531.285,-18524.785,-18519.525,-18525.83,-18526.02,-18532.62
-18523.826,-18527.453,-18537.318,-18535.809,-18546.547,-18546.303,-18537.053,-18536.443,-18539.996,-18542.555,-18534.803,-18529.371,-18534.584,-18536.52,-18528.42,-18513.988,-18518.742,-18541.738,-18536.293,-18525.26,-18533.836,-18533.146,-18531.248,-18532.785,-18550.475
-18564.658,-18539.234,-18532.611,-18554.1,-18556.307,-18543.19,-18532.766,-18536.584,-18528.092,-18513.088,-18528.248,-18527.502,-18516.697,-18534.115,-18533.82,-18529.285,-18534.895,-18530.705,-18536.361,-18539.602,-18536.65,-18530.07,-18524.914,-18532.832,-18535.953
-18540.664,-18542.959,-18543.66,-18550.916,-18547.764,-18547.174,-18547.537,-18543.906,-18549.236,-18548.969,-18543.383,-18545.514,-18536.771,-18522.393,-18528.553,-18527.688,-18522.695,-18533.018,-18529.395,-18530.545,-18540.615,-18535.805,-18534.326,-18533.77,-18533.553
-18538.812,-18538.904,-18533.354,-18528.674,-18532.566,-18534.783,-18536.795,-18540.596,-18528.484,-18520.059,-18534.826,-18543.266,-18527.416,-18521.34,-18536.549,-18540.443,-18531.158,-18531.309,-18535.865,-18534.734,-18543.646,-18539.504,-18520.564,-18529.977,-18537.297
-18529.46,-18528.18,-18533.541,-18538.82,-18530.395,-18527.672,-18529.12,-18526.035,-18520.363,-18519.62,-18537.227,-18538.018,-18538.094,-18547.096,-18534.008,-18530.756,-18535.127,-18531.553,-18531.916,-18531.77,-18531.885,-18533.701,-18531.094,-18529.145,-18540.738
-18537.87,-18521.604,-18534.592,-18543.781,-18534.387,-18537.549,-18538.709,-18536.742,-18531.598,-18523.008,-18527.979,-18529.424,-18532.436,-18547.316,-18550.508,-18532.82,-18520.396,-18539.566,-18551.041,-18536.936,-18525.965,-18525.352,-18534.553,-18530.943,-18522.984
-18531.988,-18536.521,-18531.348,-18523.83,-18524.412,-18537.383,-18539.016,-18519.514,-18507.79,-18521.09,-18533.146,-18523.902,-18516.293,-18529.256,-18537.639,-18534.725,-18533.057,-18525.736,-18524.424,-18530.012,-18528.178,-18523.23,-18520.936,-18522.113,-18520.117
-18516.639,-18516.248,-18518.74,-18527.385,-18533.293,-18529.342,-18525.123,-18531.629,-18541.627,-18534.0,-18516.102,-18521.303,-18533.555,-18517.406,-18510.18,-18524.102,-18519.682,-18516.098,-18524.943,-18533.62,-18539.5,-18530.281,-18529.562,-18536.406,-18526.537
-18522.707,-18524.062,-18516.639,-18517.541,-18530.457,-18535.715,-18531.06,-18527.979,-18535.69,-18548.762,-18529.588,-18506.707,-18520.623,-18530.232,-18538.238,-18539.025,-18522.176,-18525.438,-18529.432,-18523.027,-18518.688,-18517.252,-18519.266,-18522.871,-18524.73
-18513.664,-18514.049,-18519.863,-18524.484,-18537.94,-18539.043,-18536.457,-18520.13,-18509.947,-18514.318,-18507.568,-18515.156,-18515.912,-18514.652,-18521.25,-18515.023,-18525.785,-18538.342,-18543.336,-18545.682,-18524.373,-18512.416,-18525.512,-18531.344,-18526.854
-18521.943,-18520.77,-18530.24,-18529.154,-18515.23,-18516.57,-18519.146,-18513.299,-18513.287,-18521.09,-18520.594,-18511.47,-18523.992,-18536.74,-18524.645,-18515.688,-18522.547,-18528.883,-18526.363,-18526.137,-18522.723,-18523.217,-18524.713,-18517.498,-18523.627
-18516.715,-18512.94,-18530.498,-18524.15,-18524.959,-18527.625,-18509.266,-18507.379,-18524.064,-18539.07,-18524.766,-18512.645,-18527.99,-18529.898,-18523.775,-18525.84,-18529.74,-18525.414,-18524.09,-18531.846,-18520.492,-18513.201,-18529.475,-18537.096,-18531.914
-18526.736,-18526.229,-18527.848,-18526.348,-18526.242,-18523.658,-18518.588,-18519.719,-18519.773,-18516.26,-18517.258,-18519.996,-18517.066,-18520.977,-18537.996,-18538.014,-18525.754,-18540.186,-18549.646,-18527.287,-18522.744,-18532.332,-18530.648,-18529.062,-18522.357
-18526.178,-18531.049,-18523.326,-18528.115,-18527.316,-18525.666,-18538.39,-18540.59,-18534.275,-18522.082,-18510.97,-18516.13,-18528.82,-18527.986,-18515.684,-18518.686,-18523.436,-18523.871,-18530.432,-18524.592,-18514.197,-18518.873,-18530.5,-18528.965,-18527.074
-18532.64,-18530.508,-18527.09,-18524.016,-18529.836,-18526.297,-18511.416,-18525.375,-18537.43,-18527.28,-18524.861,-18531.506,-18535.355,-18536.172,-18536.79,-18532.852,-18527.379,-18527.47,-18531.203,-18528.955,-18529.76,-18536.805,-18527.236,-18524.004,-18536.799
-18536.41,-18538.94,-18540.994,-18528.045,-18520.549,-18524.252,-18530.893,-18526.404,-18528.527,-18537.297,-18523.486,-18518.416,-18523.217,-18524.396,-18536.742,-18531.973,-18527.115,-18545.814,-18533.55,-18506.256,-18524.637,-18545.955,-18537.857,-18528.65,-18525.445
-18527.982,-18523.697,-18521.492,-18529.512,-18524.465,-18522.758,-18525.318,-18518.65,-18520.705,-18522.88,-18525.014,-18535.445,-18532.533,-18524.217,-18531.295,-18536.098,-18523.543,-18513.045,-18523.33,-18532.814,-18524.998,-18522.482,-18522.195,-18518.768,-18523.895
-18518.918,-18515.107,-18521.043,-18519.568,-18524.098,-18531.355,-18534.959,-18527.65,-18515.564,-18521.086,-18526.148,-18524.248,-18523.967,-18527.02,-18523.62,-18509.82,-18508.717,-18515.39,-18520.578,-18520.176,-18516.285,-18528.627,-18530.416,-18514.008,-18520.025
-18529.957,-18524.031,-18522.006,-18518.69,-18528.574,-18546.164,-18540.15,-18538.148,-18534.828,-18524.469,-18530.021,-18527.57,-18532.154,-18542.246,-18535.201,-18537.275,-18531.51,-18515.143,-18514.207,-18520.479,-18529.848,-18530.943,-18517.389,-18512.47,-18522.787
-18521.646,-18507.709,-18512.262,-18533.97,-18540.836,-18531.81,-18528.527,-18524.635,-18520.162,-18525.654,-18523.758,-18513.781,-18510.646,-18505.291,-18499.746,-18509.389,-18520.314,-18519.354,-18512.033,-18510.664,-18520.676,-18516.91,-18511.832,-18518.896,-18514.824
-18514.62,-18510.309,-18505.848,-18519.295,-18518.771,-18509.896,-18506.377,-18506.54,-18513.643,-18522.137,-18523.271,-18517.8,-18525.664,-18522.455,-18514.111,-18529.58,-18528.11,-18517.03,-18507.816,-18497.633,-18515.219,-18526.215,-18521.674,-18535.033,-18541.777
-18527.371,-18512.646,-18517.844,-18536.473,-18533.91,-18520.86,-18520.791,-18521.188,-18526.088,-18530.365,-18521.334,-18512.693,-18515.24,-18522.553,-18520.402,-18514.633,-18512.312,-18519.553,-18532.479,-18525.982,-18519.068,-18521.47,-18522.475,-18526.295,-18518.63
-18518.326,-18530.654,-18530.01,-18528.064,-18530.69,-18519.43,-18504.78,-18518.418,-18524.707,-18508.885,-18510.457,-18511.98,-18508.572,-18511.678,-18513.982,-18514.084,-18513.71,-18515.883,-18517.1,-18525.518,-18530.203,-18527.72,-18528.014,-18518.582,-18512.52
-18515.877,-18520.715,-18522.041,-18520.008,-18524.287,-18525.162,-18525.283,-18521.6,-18520.84,-18530.742,-18521.947,-18516.05,-18524.264,-18527.002,-18525.672,-18524.22,-18538.842,-18536.127,-18522.9,-18524.91,-18511.514,-18509.701,-18515.734,-18525.916,-18543.734
-18528.717,-18518.895,-18524.727,-18516.295,-18510.553,-18514.12,-18515.686,-18513.871,-18516.162,-18511.967,-18510.502,-18517.66,-18513.986,-18504.74,-18503.727,-18515.723,-18521.234,-18521.695,-18531.635,-18526.299,-18515.266,-18522.54,-18529.027,-18526.912,-18520.807
-18505.271,-18497.896,-18508.205,-18511.86,-18508.79,-18506.662,-18506.592,-18511.79,-18506.922,-18503.385,-18507.26,-18504.88,-18515.186,-18522.764,-18512.826,-18516.004,-18525.309,-18519.822,-18511.33,-18517.824,-18525.906,-18522.557,-18526.244,-18529.232,-18521.723
-18521.672,-18523.832,-18520.348,-18515.127,-18504.23,-18503.04,-18518.2,-18523.586,-18518.777,-18518.576,-18513.555,-18508.38,-18516.645,-18518.562,-18513.348,-18525.186,-18538.7,-18528.965,-18510.748,-18517.27,-18530.057,-18518.543,-18511.78,-18516.297,-18511.105
-18506.182,-18512.086,-18518.754,-18521.781,-18524.064,-18517.793,-18508.734,-18510.943,-18532.695,-18540.701,-18524.207,-18532.219,-18532.666,-18518.63,-18521.705,-18521.865,-18527.926,-18521.236,-18513.348,-18521.854,-18525.088,-18535.162,-18526.17,-18516.896,-18526.338
-18525.176,-18532.797,-18534.018,-18525.438,-18519.771,-18515.596,-18521.502,-18518.068,-18516.928,-18520.062,-18520.707,-18519.25,-18502.701,-18505.938,-18521.988,-18529.703,-18532.094,-18518.783,-18518.496,-18521.072,-18517.12,-18528.248,-18527.686,-18515.207,-18515.191
-18520.645,-18520.377,-18519.137,-18513.568,-18507.404,-18518.744,-18532.111,-18529.219,-18515.912,-18515.188,-18517.906,-18505.318,-18513.322,-18529.797,-18530.297,-18526.93,-18516.088,-18516.916,-18524.074,-18521.055,-18519.686,-18517.492,-18514.764,-18512.518,-18507.898
-18500.514,-18510.494,-18535.738,-18521.744,-18503.525,-18516.732,-18503.06,-18503.29,-18529.045,-18512.84,-18499.55,-18506.785,-18511.14,-18522.203,-18520.742,-18514.098,-18517.219,-18520.176,-18513.695,-18511.281,-18534.754,-18541.463,-18523.57,-18522.13,-18515.504
-18511.963,-18520.58,-18516.832,-18522.162,-18525.057,-18513.426,-18502.143,-18497.896,-18513.809,-18516.963,-18507.166,-18514.953,-18521.033,-18516.623,-18511.674,-18516.133,-18516.904,-18511.72,-18513.229,-18512.65,-18520.584,-18527.664,-18521.328,-18516.355,-18515.775
-18518.305,-18512.76,-18509.143,-18509.908,-18502.715,-18503.996,-18506.59,-18508.744,-18520.14,-18523.64,-18519.01,-18521.002,-18525.79,-18518.389,-18512.172,-18517.318,-18518.562,-18521.48,-18521.66,-18515.568,-18520.48,-18521.348,-18516.68,-18522.705,-18519.467
-18512.31,-18525.193,-18540.771,-18535.684,-18522.596,-18524.053,-18525.562,-18516.623,-18514.236,-18520.66,-18519.395,-18512.346,-18520.482,-18527.795,-18519.637,-18510.484,-18510.527,-18519.713,-18520.291,-18521.117,-18528.227,-18526.275,-18520.441,-18513.088,-18509.605
-18509.123,-18518.035,-18527.693,-18511.379,-18504.992,-18515.143,-18514.11,-18515.512,-18512.598,-18511.488,-18518.64,-18511.676,-18508.553,-18505.777,-18489.209,-18500.068,-18523.256,-18521.89,-18515.402,-18508.926,-18514.543,-18528.586,-18524.848,-18521.664,-18526.33
-18527.193,-18524.12,-18523.016,-18525.967,-18521.48,-18516.06,-18514.383,-18516.373,-18524.807,-18525.635,-18525.63,-18528.627,-18524.97,-18524.213,-18526.197,-18531.324,-18534.5,-18518.91,-18498.348,-18497.477,-18511.203,-18514.877,-18518.059,-18528.863,-18521.69
-18511.746,-18512.39,-18511.814,-18516.918,-18519.258,-18515.068,-18517.465,-18519.943,-18514.621,-18512.447,-18513.406,-18514.46,-18516.664,-18508.623,-18510.463,-18523.307,-18523.31,-18526.47,-18527.307,-18524.838,-18525.37,-18517.785,-18520.639,-18533.168,-18536.18
-18529.309,-18520.416,-18515.143,-18513.498,-18518.521,-18525.771,-18527.1,-18521.076,-18513.559,-18512.488,-18524.146,-18530.525,-18515.912,-18509.943,-18519.51,-18526.72,-18525.287,-18517.623,-18521.857,-18528.912,-18523.719,-18517.855,-18514.898,-18522.47,-18533.691
-18528.11,-18522.8,-18517.748,-18512.824,-18530.182,-18538.809,-18527.582,-18526.314,-18530.838,-18529.34,-18524.873,-18521.445,-18520.646,-18519.092,-18511.6,-18511.33,-18519.871,-18520.564,-18515.746,-18513.355,-18517.262,-18520.914,-18519.398,-18521.73,-18524.697
-18520.383,-18521.473,-18525.158,-18517.701,-18518.34,-18521.955,-18513.43,-18514.113,-18522.994,-18525.23,-18528.455,-18531.125,-18522.57,-18514.322,-18507.533,-18507.287,-18522.27,-18525.904,-18523.89,-18521.791,-18513.43,-18518.88,-18523.443,-18523.086,-18524.697
-18513.938,-18505.885,-18514.799,-18525.902,-18523.55,-18516.459,-18520.479,-18527.627,-18520.787,-18505.52,-18508.18,-18522.094,-18518.678,-18511.229,-18519.174,-18525.875,-18521.672,-18519.322,-18524.662,-18531.975,-18524.318,-18508.328,-18510.49,-18513.973,-18515.096
-18520.803,-18514.0,-18516.877,-18527.494,-18527.008,-18529.748,-18530.982,-18528.633,-18520.363,-18513.883,-18521.225,-18520.783,-18515.398,-18522.193,-18521.326,-18501.52,-18495.383,-18512.7,-18523.215,-18524.068,-18523.998,-18521.322,-18518.252,-18516.57,-18520.229
