0.0,9266.442,20584.842,-5855.405,-31446.705,-10157.425,-12931.984,-22465.018,-8096.166,-18555.867,-15299.24,-12068.742,-20226.488,-12400.139,-19188.225,-17369.146,-16491.535,-21095.686,-16076.006,-20860.303,-17803.135,-18192.254,-19152.592,-15870.121,-18503.389
-15217.945,-16388.969,-15664.293,-14600.229,-16139.361,-14384.996,-16242.993,-15642.913,-16359.696,-17301.184,-16923.102,-18399.668,-17830.541,-18646.549,-18540.445,-18247.74,-18479.068,-17541.13,-17621.982,-16810.463,-16478.768,-16173.541,-15610.086,-15728.039,-15380.569
-15662.698,-15801.245,-16079.577,-16594.053,-16852.973,-17429.564,-17671.6,-17999.244,-18182.404,-18169.645,-18189.826,-17911.66,-17698.096,-17313.172,-16934.496,-16604.016,-16228.604,-16031.48,-15838.813,-15815.436,-15884.268,-16036.401,-16319.997,-16606.201,-16962.87
-17266.557,-17552.203,-17793.346,-17915.113,-17961.836,-17885.55,-17744.305,-17523.459,-17248.098,-16965.932,-16669.605,-16411.273,-16204.207,-16086.847,-16054.616,-16103.773,-16238.737,-16429.225,-16678.576,-16945.838,-17204.256,-17429.742,-17595.906,-17707.934,-17740.941
-17692.129,-17576.12,-17402.71,-17191.898,-16971.812,-16761.229,-16562.455,-16403.465,-16302.188,-16256.387,-16282.505,-16380.312,-16530.035,-16716.125,-16918.342,-17120.617,-17296.617,-17410.959,-17473.402,-17499.111,-17470.13,-17383.555,-17255.67,-17106.33,-16947.605
-16792.24,-16654.12,-16539.0,-16469.162,-16450.643,-16475.752,-16550.135,-16656.896,-16780.322,-16915.676,-17050.959,-17176.396,-17274.328,-17328.746,-17344.09,-17326.314,-17267.348,-17178.398,-17076.293,-16963.85,-16858.29,-16761.479,-16679.38,-16632.627,-16616.088
-16633.3,-16684.197,-16756.865,-16848.154,-16936.787,-17010.508,-17087.096,-17159.35,-17199.041,-17210.246,-17194.936,-17148.818,-17093.293,-17035.113,-16969.12,-16896.611,-16831.365,-16790.664,-16765.832,-16757.883,-16770.836,-16796.008,-16834.809,-16882.672,-16934.5
-16980.895,-17022.633,-17060.873,-17079.344,-17088.121,-17088.38,-17071.812,-17040.74,-16999.615,-16967.703,-16935.719,-16901.416,-16887.209,-16880.553,-16863.654,-16852.504,-16863.62,-16881.898,-16902.945,-16928.145,-16946.371,-16968.031,-16992.324,-17009.633,-17026.45
-17028.148,-17004.744,-16981.78,-16964.832,-16946.596,-16936.586,-16927.723,-16920.543,-16916.295,-16912.137,-16928.438,-16957.816,-16982.236,-16988.844,-16971.504,-16952.037,-16939.266,-16933.049,-16925.541,-16920.31,-16927.385,-16937.395,-16964.361,-16995.363,-17005.918
-17008.068,-17004.637,-17017.35,-17039.756,-17030.283,-17008.035,-16995.932,-16977.916,-16944.338,-16915.459,-16907.725,-16903.86,-16896.93,-16886.506,-16879.818,-16894.418,-16913.832,-16916.74,-16920.59,-16947.361,-16988.941,-17044.504,-17091.174,-17096.582,-17113.807
-17159.088,-17173.527,-17155.574,-17103.438,-17020.684,-16956.156,-16901.238,-16865.666,-16865.389,-16862.807,-16902.965,-16961.396,-16958.822,-16939.227,-16927.145,-16940.0,-16966.1,-16982.438,-17018.527,-17070.0,-17186.723,-17387.178,-17541.969,-17484.943,-17253.707
-17048.572,-16880.176,-16750.088,-16684.697,-16633.053,-16660.717,-16761.717,-16890.793,-17068.314,-17194.533,-17215.541,-17222.992,-17197.262,-17101.016,-17024.467,-16940.332,-16843.648,-16790.072,-16729.627,-16691.227,-16685.23,-16722.725,-16834.973,-16873.988,-16806.764
-16794.424,-16827.523,-16837.197,-16881.023,-16952.932,-17080.207,-17269.316,-17330.973,-17246.92,-17148.229,-17077.744,-17088.668,-17163.08,-17198.74,-17151.867,-17052.213,-16941.639,-16835.775,-16758.453,-16733.625,-16741.676,-16786.014,-16954.682,-17199.344,-17288.459
-17245.979,-17229.045,-17167.334,-17126.754,-17204.324,-17234.748,-17174.48,-17067.463,-16947.389,-16858.154,-16742.396,-16648.072,-16656.195,-16792.654,-17026.842,-17230.428,-17344.674,-17306.504,-17113.742,-16949.236,-16914.338,-16910.965,-16956.275,-17116.979,-17323.525
-17621.564,-17850.121,-17820.527,-17693.088,-17392.717,-16943.625,-16652.875,-16556.816,-16656.23,-16847.2,-16878.227,-16826.326,-16800.76,-16734.885,-16756.432,-16868.07,-16865.127,-16867.709,-16910.518,-16839.988,-16788.225,-16892.816,-17143.043,-17276.021,-17174.344
-17212.201,-17501.094,-17784.602,-17743.738,-17532.191,-17569.443,-17627.697,-17561.32,-17529.44,-17544.258,-17380.057,-16863.576,-16437.305,-16292.13,-16348.209,-16557.938,-16651.79,-16776.1,-17002.49,-17092.543,-17063.363,-17035.797,-17001.756,-16937.992,-16935.629
-16886.213,-16823.941,-16821.885,-16780.867,-16874.654,-16928.025,-16848.547,-16858.633,-16802.637,-16763.016,-16788.496,-16768.3,-16814.965,-16925.195,-17169.848,-17514.996,-17618.041,-17366.586,-17163.904,-17191.602,-17235.412,-17407.457,-17504.352,-17234.727,-16999.406
-17096.129,-17376.248,-17382.676,-17101.145,-16952.3,-16871.26,-16889.438,-16948.87,-16756.63,-16536.117,-16377.649,-16273.025,-16318.192,-16376.29,-16493.477,-16701.514,-16966.047,-17256.422,-17436.479,-17569.62,-17563.27,-17389.643,-17371.36,-17549.916,-17689.732
-17495.271,-17134.516,-17150.771,-17506.918,-17730.756,-17458.19,-16918.318,-16563.025,-16392.41,-16477.738,-16724.984,-16783.13,-16705.453,-16635.232,-16709.027,-16958.72,-17127.799,-17140.88,-17021.588,-16861.865,-16779.963,-16668.922,-16597.555,-16608.75,-16599.592
-16602.734,-16660.33,-16786.465,-16822.215,-16799.262,-16867.746,-16896.393,-16840.223,-16767.914,-16860.994,-17032.947,-17028.193,-17015.36,-17039.732,-17053.12,-17063.1,-17004.764,-17063.785,-17528.445,-18362.318,-18865.324,-18431.467,-17348.906,-16481.926,-16400.268
-16544.746,-16445.078,-16426.207,-16541.2,-16665.088,-16737.176,-16769.99,-16960.576,-17391.592,-17659.697,-17394.576,-16976.215,-16631.47,-16290.918,-16166.797,-16192.073,-16226.622,-16326.938,-16471.443,-16624.232,-16669.205,-16626.434,-16639.877,-16689.035,-16771.525
-16877.506,-16931.79,-16882.357,-16808.17,-16841.969,-16886.32,-16848.002,-16811.508,-16880.754,-16993.922,-16948.0,-16826.22,-16887.666,-17090.334,-17186.463,-17052.75,-16811.068,-16678.469,-16661.807,-16799.773,-17271.684,-17848.125,-18167.19,-18216.027,-18031.31
-17549.879,-17003.457,-16654.875,-16342.563,-16212.196,-16355.359,-16445.354,-16531.123,-16529.89,-16395.117,-16416.816,-16539.133,-16655.26,-16673.418,-16610.73,-16754.074,-17104.553,-17284.416,-17001.496,-16603.025,-16427.197,-16346.27,-16425.19,-16563.303,-16707.17
-17031.021,-17319.465,-17346.8,-17120.543,-16916.25,-16780.814,-16565.148,-16471.906,-16437.07,-16439.125,-16535.484,-16590.729,-16649.281,-16732.686,-16981.398,-17173.219,-16978.15,-16813.521,-16962.61,-17200.727,-17208.977,-17103.95,-17162.906,-17113.44,-16920.734
-16900.992,-17169.252,-17611.742,-17743.965,-17288.498,-16634.05,-16300.513,-16394.781,-16720.479,-16923.557,-16787.344,-16658.564,-16796.598,-17009.459,-17027.723,-16872.777,-16731.48,-16590.97,-16554.207,-16671.803,-16814.182,-16797.137,-16731.84,-16882.367,-17073.53
-17238.102,-17083.238,-16663.275,-16530.352,-16479.572,-16587.484,-16859.99,-16952.166,-16983.729,-16932.418,-16825.648,-16744.604,-16779.594,-16821.178,-16698.197,-16765.72,-16960.291,-17070.217,-17047.947,-16766.203,-16573.102,-16573.162,-16603.494,-16603.63,-16528.145
-16557.412,-16587.707,-16607.2,-16743.473,-16845.893,-16910.516,-16884.766,-16875.795,-17011.287,-17177.283,-17334.34,-17425.729,-17596.646,-17612.46,-17238.104,-16901.928,-16488.283,-16082.02,-16170.218,-16373.78,-16458.688,-16617.918,-16846.838,-17072.584,-17118.955
-17089.688,-17148.953,-17232.38,-17387.314,-17299.066,-16811.725,-16489.812,-16454.324,-16461.902,-16538.58,-16748.902,-16927.508,-16768.477,-16571.975,-16637.334,-16765.248,-16911.29,-16953.957,-17029.25,-17203.912,-17098.59,-16817.977,-16579.713,-16456.393,-16513.387
-16751.666,-17095.348,-17139.902,-16917.404,-16886.389,-17040.355,-17111.484,-16966.234,-16757.432,-16665.67,-16697.793,-16778.324,-16734.117,-16645.266,-16665.064,-16669.387,-16669.957,-16756.928,-16861.93,-16857.533,-16726.627,-16615.95,-16602.666,-16652.523,-16681.184
-16701.389,-16823.39,-17019.092,-17107.996,-17033.525,-16946.762,-16849.19,-16841.076,-17068.246,-17249.025,-17157.764,-16831.654,-16482.547,-16385.834,-16526.664,-16707.098,-16853.11,-16947.355,-17023.996,-17195.65,-17116.426,-16773.93,-16859.87,-17218.074,-17385.568
-17265.555,-16884.21,-16688.887,-16792.475,-16979.244,-17076.725,-17070.424,-17122.902,-17015.02,-16872.057,-16773.092,-16505.066,-16479.246,-16645.404,-16737.916,-16754.479,-16578.01,-16476.998,-16499.002,-16505.736,-16562.537,-16633.71,-16681.299,-16680.49,-16696.629
-16715.486,-16690.098,-16674.875,-16651.053,-16634.002,-16651.387,-16727.262,-16879.629,-17017.305,-17046.225,-17107.914,-17280.25,-17372.477,-17393.025,-17237.572,-16925.523,-16929.785,-17150.268,-17152.764,-16908.422,-16689.027,-16643.98,-16643.691,-16695.588,-16894.334
-17192.861,-17226.854,-16851.229,-16441.408,-16208.584,-16203.383,-16351.623,-16508.488,-16601.004,-16646.79,-16722.39,-16800.105,-16902.53,-16954.697,-16992.418,-17237.848,-17497.63,-17445.338,-17137.258,-16767.371,-16548.56,-16711.715,-16920.014,-16874.826,-16926.19
-16997.787,-16865.9,-16758.023,-16780.787,-16803.268,-16768.75,-16804.541,-16785.172,-16707.24,-16883.39,-17026.748,-16855.967,-16680.885,-16607.799,-16558.037,-16663.592,-16823.947,-16795.027,-16781.545,-16791.695,-16700.15,-16768.26,-16911.86,-17057.947,-17336.98
-17444.047,-17338.129,-17375.78,-17401.168,-17087.082,-16660.662,-16352.473,-16169.699,-16255.723,-16581.658,-16960.566,-17169.504,-17064.842,-16924.746,-16861.04,-16684.158,-16514.904,-16430.75,-16413.904,-16531.04,-16602.527,-16589.816,-16611.572,-16621.35,-16633.812
-16632.7,-16634.102,-16690.744,-16834.182,-17041.775,-17066.467,-17022.402,-17205.908,-17440.168,-17569.742,-17390.354,-16891.209,-16742.7,-17108.201,-17617.842,-17975.678,-17762.746,-17055.707,-16433.924,-16433.305,-17018.945,-17456.045,-17148.232,-16494.754,-16222.959
-16116.538,-16118.076,-16295.398,-16349.2705,-16457.594,-16524.037,-16536.225,-16591.672,-16574.9,-16607.424,-16585.027,-16574.314,-16614.982,-16674.883,-16839.195,-17002.975,-17252.229,-17468.213,-17441.006,-17291.434,-17207.98,-17089.1,-16792.54,-16631.773,-16601.178
-16555.338,-16562.414,-16551.355,-16565.998,-16570.9,-16583.15,-16672.4,-16829.084,-16945.814,-16820.475,-16671.422,-16615.521,-16573.703,-16625.92,-16705.867,-16788.219,-16845.807,-16869.307,-16937.197,-17139.738,-17405.844,-17379.936,-17073.316,-16763.771,-16568.912
-16587.678,-16771.674,-17052.2,-17377.217,-17536.488,-17353.816,-16905.756,-16485.355,-16304.529,-16362.569,-16500.865,-16596.104,-16721.998,-16809.95,-16748.135,-16686.887,-16667.295,-16644.268,-16673.639,-16689.463,-16636.404,-16644.238,-16759.336,-16789.672,-16663.059
-16620.06,-16689.887,-16708.664,-16818.11,-17110.428,-17464.848,-17773.463,-17882.727,-17616.21,-17070.041,-16707.432,-16537.78,-16374.872,-16406.246,-16444.934,-16422.707,-16465.7,-16464.219,-16510.62,-16536.09,-16518.479,-16550.506,-16557.148,-16592.504,-16628.129
-16688.676,-16863.701,-17064.758,-17149.678,-17109.752,-17215.121,-17493.074,-17598.213,-17514.55,-17481.973,-17361.754,-17177.87,-17161.594,-16901.271,-16524.916,-16690.51,-17156.607,-17415.012,-17270.686,-16927.623,-16522.795,-16163.018,-16199.21,-16440.031,-16731.908
-16958.482,-16949.78,-16863.545,-16662.48,-16532.074,-16546.555,-16660.95,-16839.723,-16756.207,-16620.293,-16590.564,-16556.746,-16573.918,-16604.87,-16664.63,-16699.672,-16738.125,-16827.695,-16959.451,-17137.297,-17175.953,-17131.762,-17198.486,-17235.299,-17124.44
-16928.111,-16717.588,-16717.955,-16906.428,-16892.357,-16697.977,-16553.418,-16521.12,-16616.14,-16817.264,-17047.215,-17113.578,-17047.35,-16927.445,-16776.139,-16856.88,-17181.467,-17285.021,-16886.533,-16466.828,-16341.108,-16335.488,-16513.988,-16643.121,-16647.676
-16725.129,-16741.535,-16785.465,-16855.25,-16898.143,-16933.867,-16897.047,-16884.51,-16833.11,-16768.412,-16784.31,-16825.797,-16828.34,-16765.428,-16934.29,-17396.533,-17654.316,-17402.627,-17040.578,-16921.219,-16922.785,-17214.643,-17660.133,-17650.223,-17107.229
-16493.56,-16204.029,-16135.608,-16221.638,-16380.892,-16444.271,-16523.973,-16581.219,-16598.582,-16610.945,-16674.1,-16793.264,-16783.453,-16769.643,-16857.506,-16944.79,-16947.805,-16907.717,-16906.703,-16918.39,-17087.5,-17333.176,-17374.545,-17185.445,-16953.053
-16860.324,-16749.234,-16617.8,-16555.77,-16462.32,-16465.49,-16552.188,-16656.602,-16882.14,-17095.938,-17040.922,-16815.355,-16762.807,-16722.438,-16603.844,-16657.635,-16766.01,-16970.428,-17232.25,-17306.102,-17265.168,-17097.16,-16884.326,-16716.21,-16589.207
-16572.152,-16541.453,-16545.41,-16610.29,-16688.674,-16834.494,-16916.502,-16969.031,-16940.094,-16781.139,-16687.379,-16645.62,-16663.57,-16728.738,-16816.559,-16904.906,-16879.324,-16828.096,-16848.434,-17016.336,-17323.39,-17392.027,-17028.531,-16696.912,-16724.973
-16884.922,-17000.074,-16980.348,-16869.557,-16836.588,-16870.258,-16880.967,-16718.258,-16482.01,-16408.254,-16404.967,-16439.021,-16543.977,-16629.076,-16686.83,-16816.377,-17087.375,-17288.877,-17264.686,-17148.734,-16927.725,-16722.428,-16700.639,-16665.396,-16613.074
-16625.963,-16637.775,-16656.361,-16662.06,-16695.182,-16895.459,-17433.686,-18018.17,-17993.564,-17366.068,-16689.309,-16328.389,-16260.355,-16427.34,-16752.756,-16986.326,-16995.398,-16856.486,-16861.209,-16900.777,-16746.729,-16699.451,-16645.246,-16505.756,-16546.113
-16614.287,-16715.75,-16834.488,-16859.787,-17008.87,-17168.69,-17198.791,-17326.725,-17442.01,-17273.879,-16960.898,-16756.61,-16649.799,-16517.031,-16433.977,-16466.432,-16525.559,-16590.904,-16631.578,-16679.182,-16694.885,-16602.465,-16536.28,-16490.422,-16490.027
-16534.992,-16526.402,-16559.248,-16620.92,-16699.707,-16844.186,-17103.67,-17406.8,-17522.912,-17530.45,-17407.383,-17134.4,-17036.861,-16932.264,-16639.8,-16522.275,-16595.295,-16686.375,-16734.398,-16642.994,-16559.494,-16621.186,-16670.375,-16598.072,-16546.451
-16582.545,-16634.498,-16703.822,-16757.494,-16832.033,-16910.162,-16892.266,-16840.832,-16792.822,-16800.54,-16836.572,-16834.496,-16809.19,-16700.428,-16709.373,-16869.363,-16814.797,-16667.107,-16653.57,-16626.322,-16637.896,-16816.523,-17105.07,-17443.928,-17668.303
-17483.781,-16901.871,-16455.615,-16391.348,-16447.236,-16532.926,-16627.617,-16729.248,-16776.895,-16714.133,-16688.031,-16628.94,-16558.781,-16582.318,-16609.418,-16717.535,-16824.955,-16763.514,-16720.371,-16811.814,-16944.893,-17143.178,-17248.418,-17026.73,-16773.818
-16740.277,-16847.29,-17078.07,-17265.516,-17223.36,-17036.379,-16882.041,-16715.264,-16528.822,-16527.521,-16614.975,-16752.803,-16893.262,-16770.125,-16603.123,-16566.727,-16543.324,-16512.004,-16493.54,-16607.9,-16943.918,-17507.326,-17857.113,-17574.975,-17028.191
-16555.068,-16287.668,-16328.273,-16423.346,-16513.293,-16722.4,-16817.592,-16756.61,-16769.988,-16810.184,-16746.447,-16649.172,-16615.506,-16600.777,-16608.31,-16661.832,-16759.059,-17017.223,-17499.135,-18023.057,-18035.785,-17389.668,-16770.678,-16455.742,-16270.814
-16260.661,-16382.146,-16502.19,-16564.684,-16609.762,-16646.557,-16643.43,-16641.463,-16610.393,-16594.732,-16629.535,-16635.299,-16629.93,-16603.59,-16606.135,-16740.828,-16941.686,-17025.648,-16905.305,-16766.803,-16740.26,-16737.484,-16743.88,-16776.209,-16786.785
-16782.752,-16781.637,-16754.57,-16718.596,-16686.834,-16664.297,-16701.066,-16827.38,-17066.643,-17355.344,-17470.758,-17286.105,-16969.533,-16742.57,-16608.104,-16543.666,-16577.361,-16618.4,-16698.586,-16845.848,-16893.607,-16851.41,-16760.898,-16646.266,-16582.184
-16545.168,-16570.008,-16697.254,-16880.242,-16915.5,-16736.143,-16649.496,-16858.38,-17161.832,-17214.535,-17227.727,-17432.273,-17438.84,-17183.21,-16879.088,-16650.455,-16628.4,-16691.982,-16703.158,-16623.213,-16518.25,-16491.953,-16461.6,-16415.785,-16408.617
-16412.637,-16415.48,-16440.85,-16537.482,-16789.814,-17154.582,-17343.836,-17346.486,-17242.787,-16972.291,-16872.49,-16959.84,-16984.617,-17060.398,-16979.238,-16693.553,-16551.549,-16541.13,-16615.223,-16698.762,-16608.55,-16520.293,-16564.066,-16698.824,-16864.268
-16834.504,-16734.445,-16704.543,-16751.594,-17114.297,-17441.172,-17366.006,-17279.088,-17271.588,-17113.244,-16901.37,-16709.078,-16520.432,-16398.967,-16371.317,-16422.92,-16434.4,-16454.1,-16522.986,-16517.947,-16529.209,-16558.76,-16589.588,-16667.023,-16760.48
-16843.201,-16878.656,-16945.594,-16915.219,-16772.56,-16755.96,-16754.066,-16758.71,-16825.389,-16819.25,-16762.402,-16724.99,-16725.15,-16718.389,-16704.578,-16682.754,-16638.455,-16657.197,-16674.455,-16676.729,-16730.836,-16756.432,-16748.031,-16742.648,-16783.162
-16928.92,-17149.055,-17242.488,-17081.664,-16891.557,-16830.336,-16854.277,-16930.504,-17066.143,-17181.209,-17110.076,-17053.049,-17028.281,-16790.832,-16618.537,-16555.824,-16492.488,-16532.541,-16516.31,-16493.197,-16519.412,-16539.9,-16588.246,-16588.887,-16613.502
-16637.6,-16633.338,-16662.398,-16662.818,-16681.074,-16710.273,-16744.758,-16848.797,-17047.738,-17216.023,-17167.408,-17076.021,-17036.99,-16983.855,-17007.453,-17058.986,-17068.172,-16944.121,-16689.787,-16563.484,-16554.9,-16574.146,-16675.545,-16778.795,-16862.574
-16877.814,-16767.293,-16719.426,-16824.57,-16902.32,-16909.45,-16962.436,-16866.793,-16609.639,-16513.852,-16524.855,-16598.045,-16734.564,-16830.8,-16894.354,-16848.406,-16797.016,-16805.682,-16803.447,-16847.924,-16832.498,-16741.082,-16790.86,-17174.082,-17740.42
-17931.83,-17503.375,-16934.81,-16687.895,-16529.848,-16398.074,-16506.068,-16666.363,-16872.66,-17024.393,-16901.512,-16719.664,-16566.316,-16454.814,-16409.596,-16391.832,-16405.17,-16391.504,-16393.877,-16412.787,-16472.68,-16661.18,-16922.984,-17089.236,-17050.967
-16978.418,-16899.084,-16820.477,-16884.002,-16962.008,-16999.18,-16975.93,-16893.309,-16854.871,-16783.387,-16708.256,-16721.195,-16732.496,-16682.973,-16622.035,-16565.115,-16560.895,-16676.662,-16739.219,-16784.521,-17121.256,-17511.082,-17493.066,-17217.014,-17043.602
-16939.059,-16832.43,-16822.566,-16798.627,-16664.598,-16554.586,-16475.383,-16437.123,-16479.146,-16497.55,-16493.8,-16480.213,-16494.432,-16647.033,-16805.469,-16814.824,-16786.818,-16847.975,-16920.775,-16971.08,-17058.23,-17121.236,-17128.262,-17085.633,-16946.541
-16744.123,-16619.008,-16542.814,-16459.863,-16485.215,-16548.322,-16640.5,-16802.232,-16935.03,-16961.637,-16869.531,-16867.66,-16802.734,-16606.512,-16601.217,-16629.709,-16695.186,-16830.08,-16843.34,-16835.135,-16809.824,-16774.885,-16758.348,-16792.732,-16937.25
-17032.438,-17007.955,-16934.87,-17045.768,-17365.957,-17359.53,-16991.238,-16663.965,-16413.877,-16384.318,-16528.832,-16599.57,-16680.85,-16717.828,-16725.268,-16775.84,-16748.373,-16695.38,-16644.896,-16581.838,-16514.537,-16466.65,-16471.523,-16475.152,-16510.531
-16588.74,-16715.303,-16857.322,-16878.592,-16850.553,-16848.822,-16829.193,-16839.275,-16883.32,-16909.688,-16921.46,-16911.836,-16891.12,-16863.98,-16802.72,-16738.287,-16656.014,-16561.781,-16563.139,-16638.44,-16708.52,-16794.746,-16915.725,-17007.775,-16995.34
-16910.768,-16829.102,-16820.85,-16952.984,-17076.395,-17009.662,-16907.043,-16830.693,-16657.055,-16520.883,-16493.086,-16485.568,-16515.205,-16549.297,-16564.613,-16582.18,-16588.977,-16640.059,-16816.764,-17071.695,-17206.17,-17121.4,-16979.406,-16909.758,-16851.727
-16786.8,-16784.12,-16830.195,-16812.777,-16740.568,-16689.24,-16612.477,-16548.271,-16541.598,-16573.602,-16673.816,-16742.826,-16698.277,-16641.592,-16694.31,-16823.701,-16941.576,-17103.912,-17243.562,-17205.318,-17069.693,-16915.926,-16755.062,-16643.787,-16585.354
-16616.264,-16691.639,-16679.975,-16639.426,-16639.451,-16689.848,-16782.547,-16781.852,-16655.17,-16572.611,-16591.32,-16629.65,-16675.193,-16672.604,-16612.46,-16633.1,-16741.975,-16865.295,-16955.729,-16984.592,-16948.8,-16836.715,-16759.152,-16796.418,-16824.254
-16751.883,-16680.326,-16677.498,-16649.025,-16634.9,-16636.613,-16577.385,-16579.527,-16605.744,-16617.002,-16681.896,-16769.367,-16967.014,-17195.21,-17272.139,-17174.43,-16938.602,-16779.58,-16740.357,-16667.291,-16616.416,-16607.268,-16574.97,-16585.232,-16621.492
-16616.062,-16615.387,-16642.938,-16708.492,-16730.477,-16664.754,-16648.918,-16681.785,-16726.764,-16816.14,-16903.895,-16923.686,-16859.967,-16852.152,-16964.535,-17056.197,-17053.137,-16967.188,-16871.057,-16811.014,-16748.967,-16686.555,-16622.143,-16574.559,-16568.66
-16608.76,-16703.154,-16789.045,-16908.785,-17068.336,-17021.812,-16801.867,-16714.328,-16769.355,-16855.682,-16885.295,-16753.354,-16640.477,-16657.97,-16627.97,-16595.125,-16623.586,-16631.717,-16632.592,-16619.121,-16602.605,-16618.598,-16662.129,-16705.166,-16741.188
-16815.736,-16839.334,-16861.982,-16974.566,-16911.596,-16712.697,-16619.81,-16576.25,-16612.648,-16756.203,-16949.342,-17161.572,-17303.191,-17306.344,-17146.732,-16916.754,-16730.193,-16649.96,-16647.68,-16595.492,-16602.56,-16669.91,-16656.3,-16638.053,-16590.771
-16567.877,-16615.064,-16654.832,-16706.21,-16687.398,-16648.875,-16652.084,-16665.89,-16745.084,-16810.129,-16821.768,-16779.012,-16757.21,-16848.6,-16944.014,-17005.629,-16938.375,-16916.996,-17212.32,-17286.357,-16955.244,-16734.812,-16576.924,-16472.516,-16605.57
-16692.121,-16631.812,-16568.77,-16553.68,-16578.2,-16577.844,-16617.268,-16727.709,-16852.863,-16884.19,-16793.082,-16711.98,-16643.633,-16618.32,-16621.236,-16621.951,-16685.213,-16718.22,-16731.027,-16742.104,-16743.377,-16809.518,-16860.83,-16863.955,-16816.512
-16760.945,-16766.707,-16719.424,-16639.66,-16622.043,-16608.902,-16599.395,-16654.604,-16752.156,-16867.275,-17054.559,-17241.914,-17265.703,-17100.91,-16888.314,-16794.113,-16754.463,-16691.355,-16660.518,-16628.617,-16604.445,-16600.568,-16600.883,-16660.172,-16722.822
-16702.002,-16642.84,-16616.768,-16603.87,-16613.922,-16703.625,-16798.477,-16847.592,-16915.477,-17008.809,-17008.795,-16872.479,-16742.494,-16711.473,-16754.248,-16765.975,-16748.508,-16808.94,-16887.123,-16970.752,-16968.047,-16735.244,-16523.625,-16470.912,-16571.951
-16860.47,-17002.084,-16885.97,-16760.996,-16672.375,-16636.857,-16659.256,-16700.502,-16830.844,-17021.977,-17076.908,-17116.89,-17326.553,-17410.48,-17240.8,-16971.193,-16737.58,-16639.695,-16525.818,-16386.844,-16323.32,-16330.039,-16439.855,-16530.451,-16593.602
-16666.016,-16677.008,-16702.27,-16709.08,-16710.945,-16787.766,-16806.91,-16747.852,-16686.008,-16621.418,-16620.203,-16711.16,-16827.287,-16925.488,-16941.2,-16896.713,-16887.756,-16862.668,-16788.45,-16711.672,-16643.283,-16608.434,-16604.09,-16597.008,-16595.033
-16592.941,-16583.406,-16584.426,-16587.805,-16595.291,-16607.781,-16620.418,-16644.695,-16676.498,-16711.334,-16745.336,-16787.115,-16832.654,-16855.83,-16878.115,-16930.35,-16978.877,-17014.076,-17076.06,-17072.55,-16958.371,-16926.207,-16980.979,-16955.46,-16932.111
-16947.008,-16822.348,-16634.182,-16568.266,-16551.082,-16583.709,-16686.56,-16743.64,-16763.67,-16734.523,-16713.87,-16807.182,-16944.926,-17011.902,-16876.639,-16695.201,-16601.482,-16491.89,-16481.424,-16536.533,-16578.525,-16656.072,-16689.756,-16719.168,-16755.473
-16781.594,-16832.393,-16833.893,-16803.764,-16779.172,-16743.984,-16727.943,-16720.719,-16698.428,-16682.982,-16687.205,-16699.584,-16748.64,-16778.416,-16726.623,-16743.12,-16859.133,-16924.094,-16937.154,-16957.654,-16958.713,-16890.27,-16797.691,-16771.781,-16759.176
-16701.29,-16630.117,-16581.334,-16589.424,-16658.861,-16781.236,-16816.148,-16740.979,-16727.383,-16708.102,-16680.33,-16714.848,-16744.332,-16746.154,-16705.885,-16720.123,-16809.838,-16951.229,-17130.496,-17119.508,-16911.355,-16711.51,-16614.752,-16631.156,-16683.748
-16689.283,-16668.273,-16713.537,-16768.031,-16791.592,-16868.576,-16978.447,-16966.11,-16785.82,-16653.166,-16570.264,-16490.473,-16527.213,-16563.562,-16579.773,-16632.43,-16688.262,-16726.732,-16712.225,-16722.055,-16718.035,-16662.29,-16685.82,-16749.441,-16750.277
-16707.498,-16669.41,-16654.877,-16662.422,-16679.305,-16716.475,-16774.652,-16816.164,-16851.258,-16852.408,-16791.95,-16727.455,-16691.184,-16692.383,-16718.678,-16722.506,-16693.105,-16681.521,-16696.652,-16767.46,-16885.295,-16896.957,-16870.549,-16874.191,-16785.443
-16710.516,-16699.145,-16667.148,-16652.404,-16643.0,-16635.441,-16645.432,-16642.633,-16655.242,-16733.89,-16854.846,-16867.504,-16781.373,-16790.736,-16802.588,-16729.072,-16695.47,-16667.484,-16657.518,-16713.963,-16710.514,-16667.441,-16688.084,-16731.875,-16805.15
-16945.148,-17104.143,-17149.363,-16989.023,-16755.219,-16561.873,-16447.652,-16446.898,-16466.5,-16492.717,-16603.998,-16829.129,-17011.236,-16978.371,-16960.062,-17063.244,-17057.627,-16916.629,-16717.504,-16569.746,-16571.627,-16555.746,-16502.885,-16539.242,-16544.97
-16537.424,-16565.291,-16580.035,-16669.66,-16810.174,-16991.209,-17221.074,-17309.111,-17111.572,-16810.965,-16666.98,-16560.654,-16477.758,-16582.309,-16673.629,-16669.115,-16701.428,-16697.516,-16653.738,-16685.684,-16752.3,-16749.916,-16668.26,-16612.076,-16618.955
-16595.387,-16587.86,-16676.066,-16798.334,-16851.004,-16785.93,-16696.957,-16667.115,-16696.926,-16779.13,-16920.32,-17062.807,-17066.818,-16962.885,-16837.02,-16720.305,-16682.174,-16706.51,-16729.016,-16646.04,-16500.004,-16464.53,-16506.158,-16581.88,-16654.06
-16696.63,-16766.7,-16789.973,-16789.582,-16872.55,-16949.27,-16906.645,-16785.277,-16660.24,-16586.412,-16645.674,-16757.512,-16773.541,-16710.098,-16666.258,-16669.348,-16683.277,-16745.164,-16822.967,-16860.145,-16889.896,-16916.012,-16899.273,-16815.41,-16787.543
-16838.984,-16817.582,-16710.578,-16614.295,-16621.771,-16766.367,-16998.438,-17126.75,-17055.092,-16965.373,-16882.953,-16692.895,-16508.436,-16449.598,-16443.25,-16451.559,-16496.623,-16575.342,-16687.094,-16795.994,-16853.467,-16851.7,-16812.037,-16759.02,-16773.611
-16856.262,-16868.139,-16767.758,-16670.54,-16654.67,-16631.457,-16594.822,-16551.48,-16517.37,-16572.223,-16598.309,-16637.69,-16698.887,-16700.14,-16740.764,-16715.635,-16665.254,-16671.484,-16660.191,-16684.121,-16685.234,-16673.29,-16685.049,-16690.271,-16721.291
-16754.834,-16816.396,-16904.523,-16930.027,-16854.168,-16756.543,-16703.66,-16658.738,-16641.594,-16651.316,-16668.338,-16706.975,-16801.342,-17036.408,-17298.469,-17344.957,-17183.062,-16985.322,-16784.617,-16580.467,-16491.13,-16500.219,-16512.363,-16566.77,-16642.8
-16684.19,-16781.371,-16907.64,-16901.178,-16868.895,-16917.242,-16873.107,-16733.215,-16657.943,-16627.52,-16637.262,-16765.623,-16872.791,-16837.8,-16746.127,-16628.584,-16600.262,-16673.836,-16725.824,-16817.596,-16871.24,-16849.955,-16841.816,-16846.682,-16896.598
-16850.973,-16722.125,-16691.996,-16692.348,-16713.707,-16746.234,-16707.46,-16664.87,-16652.666,-16687.703,-16766.914,-16757.28,-16691.598,-16645.566,-16592.393,-16591.23,-16606.086,-16613.656,-16695.23,-16858.766,-16993.238,-16944.713,-16787.285,-16634.19,-16562.656
-16684.87,-16861.146,-16960.406,-17022.62,-17157.307,-17386.742,-17394.879,-17136.518,-16903.701,-16714.443,-16615.352,-16707.402,-16907.58,-17203.053,-17518.104,-17507.484,-17100.34,-16717.85,-16537.434,-16498.814,-16616.64,-16639.62,-16517.557,-16566.033,-16657.318
-16601.504,-16609.14,-16655.115,-16644.227,-16739.436,-16880.938,-16886.637,-16762.732,-16646.414,-16680.232,-16770.209,-16829.518,-16982.809,-17045.148,-16829.49,-16709.424,-16769.713,-16864.744,-17139.486,-17315.797,-17140.31,-16869.564,-16671.76,-16538.012,-16467.156
-16491.793,-16513.027,-16524.67,-16594.113,-16661.262,-16730.793,-16793.963,-16814.914,-16811.24,-16919.781,-16975.074,-16952.566,-17170.666,-17140.031,-16881.559,-16959.42,-17080.752,-17177.703,-17106.863,-16812.414,-16733.566,-16724.568,-16721.568,-16786.156,-16894.988
-17129.213,-17071.582,-16648.879,-16313.243,-16246.815,-16396.744,-16512.422,-16576.639,-16692.068,-16762.611,-16905.197,-17179.752,-17364.195,-17357.262,-17159.482,-16958.812,-16912.926,-16754.58,-16604.684,-16693.525,-16795.225,-16896.074,-16827.594,-16703.656,-16906.78
-17028.717,-16929.232,-16834.771,-16696.736,-16690.824,-16969.674,-17395.227,-17570.043,-17168.926,-16633.826,-16450.783,-16364.293,-16300.651,-16358.9,-16399.346,-16469.887,-16567.799,-16779.021,-17173.893,-17401.45,-17223.2,-16864.227,-16671.768,-16605.371,-16609.05
-16815.082,-17177.031,-17403.65,-17270.695,-17063.875,-16902.01,-16755.9,-16802.309,-16923.988,-16948.385,-16713.139,-16474.348,-16509.295,-16508.11,-16522.607,-16582.64,-16580.158,-16543.268,-16412.822,-16355.246,-16362.787,-16416.197,-16518.639,-16565.426,-16646.9
-16734.932,-16927.752,-17246.936,-17417.566,-17413.107,-17504.14,-17730.195,-17606.848,-17115.975,-16717.148,-16446.568,-16309.2,-16326.989,-16363.899,-16464.168,-16621.994,-16711.486,-16813.625,-16990.438,-17142.361,-17216.05,-17154.863,-16902.498,-16748.996,-16937.023
-17216.824,-17369.812,-17164.531,-16655.26,-16323.564,-16266.867,-16395.707,-16571.664,-16648.143,-16652.715,-16652.55,-16744.994,-16870.145,-16942.22,-16965.66,-17040.229,-17154.787,-17024.814,-16652.004,-16367.95,-16404.1,-16593.164,-16637.701,-16607.92,-16604.826
-16585.492,-16587.25,-16646.89,-16690.428,-16701.545,-16727.047,-16716.68,-16688.898,-16660.854,-16621.957,-16669.912,-16848.934,-17071.61,-17105.87,-16875.191,-16644.703,-16539.016,-16451.086,-16484.205,-16762.836,-17140.416,-17455.158,-17456.941,-17162.684,-16973.73
-16869.857,-16895.371,-17100.99,-16980.365,-16615.34,-16393.518,-16256.492,-16262.881,-16348.251,-16427.648,-16564.887,-16614.281,-16610.486,-16660.268,-16706.994,-16867.844,-17182.408,-17409.814,-17395.795,-17224.469,-16948.928,-16680.367,-16560.465,-16458.31,-16379.629
-16378.382,-16395.688,-16469.676,-16519.727,-16575.701,-16720.139,-16936.146,-17142.547,-17179.223,-17120.889,-17037.371,-16906.271,-16764.457,-16795.107,-17098.1,-17295.54,-17180.45,-16942.95,-16856.025,-16918.215,-16988.504,-17068.682,-16831.12,-16434.701,-16266.682
-16195.031,-16300.107,-16420.846,-16485.88,-16640.387,-16733.45,-16850.11,-17113.273,-17517.896,-17670.537,-17459.094,-17236.336,-16751.877,-16378.67,-16441.965,-16378.214,-16352.864,-16425.42,-16474.504,-16636.287,-16773.105,-16898.64,-16881.93,-16761.264,-16696.922
-16591.023,-16533.875,-16474.586,-16421.814,-16409.791,-16431.098,-16625.37,-16820.438,-16855.734,-16790.922,-16793.793,-16927.555,-17049.809,-17118.025,-17079.186,-16985.045,-16819.875,-16604.92,-16597.996,-16705.576,-16799.457,-16810.248,-16728.883,-16809.473,-16937.113
-16879.03,-16697.8,-16548.154,-16481.164,-16483.266,-16688.021,-16955.568,-17014.004,-16907.477,-16780.195,-16758.691,-16871.666,-17029.42,-17057.69,-17008.256,-17041.1,-16988.236,-16870.191,-16828.525,-16723.736,-16554.156,-16454.268,-16425.5,-16415.98,-16448.033
-16507.674,-16561.781,-16637.074,-16694.664,-16728.406,-16730.264,-16695.34,-16673.322,-16698.457,-16874.45,-17048.836,-16931.873,-16678.291,-16523.906,-16471.812,-16607.902,-16905.8,-17091.229,-17115.768,-17146.137,-17260.033,-17327.627,-17298.229,-17267.008,-17101.576
-16855.365,-16644.803,-16507.53,-16550.031,-16526.986,-16466.453,-16433.82,-16296.406,-16378.2295,-16757.49,-17186.342,-17252.867,-16992.584,-16997.78,-16956.258,-16726.627,-16634.672,-16484.275,-16467.654,-16586.145,-16587.303,-16629.723,-16647.494,-16629.994,-16615.514
-16562.047,-16531.809,-16494.941,-16475.635,-16466.18,-16475.412,-16532.592,-16602.791,-16720.12,-16810.793,-16912.049,-17123.756,-17266.043,-17289.139,-17272.643,-17150.574,-16979.02,-16794.32,-16632.121,-16592.943,-16515.037,-16436.113,-16423.734,-16375.703,-16393.582
-16404.564,-16409.057,-16449.346,-16452.848,-16503.457,-16591.441,-16706.61,-16753.295,-16704.19,-16720.535,-16808.045,-17033.502,-17431.992,-17737.615,-17770.213,-17729.736,-17501.678,-16895.979,-16407.508,-16210.63,-16127.594,-16176.2295,-16261.577,-16372.278,-16528.928
-16724.193,-16835.785,-16730.736,-16579.871,-16513.32,-16533.648,-16550.375,-16530.186,-16548.205,-16578.848,-16626.37,-16651.527,-16677.158,-16729.303,-16713.293,-16732.967,-16895.168,-17081.46,-17176.016,-17287.654,-17357.504,-17200.898,-16996.902,-16743.207,-16461.373
-16367.81,-16353.948,-16437.44,-16595.969,-16680.447,-16699.115,-16633.27,-16618.648,-16652.15,-16701.104,-16881.53,-16958.998,-16865.111,-16853.83,-16898.873,-16830.645,-16689.611,-16595.19,-16590.965,-16800.3,-17111.834,-17222.252,-17144.139,-16993.27,-16871.664
-16781.943,-16641.035,-16538.107,-16588.879,-16772.887,-16787.645,-16537.117,-16414.025,-16463.541,-16455.533,-16416.979,-16409.363,-16421.13,-16454.309,-16494.48,-16518.275,-16563.111,-16608.451,-16688.594,-16985.047,-17295.93,-17228.871,-17042.326,-17085.246,-17046.713
-16908.143,-16857.195,-16672.26,-16608.232,-16698.95,-16693.377,-17112.232,-17791.908,-17787.846,-17177.877,-16644.812,-16248.927,-16056.552,-16164.714,-16208.512,-16268.521,-16397.188,-16450.992,-16546.209,-16601.621,-16634.002,-16654.521,-16779.955,-17098.928,-17184.87
-16917.201,-16666.656,-16591.092,-16554.406,-16538.197,-16552.078,-16626.46,-16898.094,-17214.293,-17241.027,-16958.39,-16752.326,-16701.758,-16651.846,-16726.873,-16756.533,-16588.904,-16486.178,-16518.674,-16561.232,-16586.492,-16576.953,-16516.748,-16508.965,-16620.541
-16768.033,-16801.498,-16715.379,-16655.615,-16741.258,-17065.402,-17399.016,-17305.277,-16871.85,-16575.627,-16448.03,-16335.234,-16412.182,-16600.277,-16719.082,-16768.635,-16731.24,-16758.367,-16789.145,-16692.4,-16638.834,-16653.857,-16626.201,-16533.756,-16459.367
-16468.25,-16548.873,-16661.896,-16722.314,-16720.73,-16694.07,-16670.145,-16654.533,-16633.746,-16630.922,-16634.652,-16690.652,-16853.475,-17054.717,-17183.2,-17130.348,-16939.914,-16841.92,-16877.97,-16804.922,-16720.463,-16781.605,-16742.195,-16722.662,-16837.303
-16841.383,-16758.037,-16718.758,-16854.262,-17029.484,-16942.932,-16737.486,-16686.371,-16766.76,-16769.963,-16599.314,-16391.723,-16377.597,-16533.959,-16623.701,-16612.367,-16601.049,-16666.16,-16752.598,-16751.295,-16747.62,-16783.297,-16768.004,-16740.09,-16702.986
-16614.21,-16571.918,-16598.309,-16680.717,-16730.572,-16625.74,-16540.115,-16517.822,-16485.451,-16547.342,-16634.121,-16679.943,-16726.924,-16746.871,-16754.373,-16745.227,-16721.361,-16686.943,-16619.512,-16568.229,-16545.191,-16585.6,-16748.611,-16931.688,-17030.691
-17024.541,-16871.623,-16685.752,-16678.764,-16785.479,-16844.475,-16813.062,-16718.896,-16676.406,-16715.268,-16870.97,-17040.82,-16999.043,-16917.988,-16827.18,-16636.385,-16587.95,-16594.203,-16474.297,-16329.072,-16287.1045,-16386.049,-16470.297,-16542.666,-16646.771
-16705.979,-16749.268,-16750.418,-16725.576,-16717.29,-16699.379,-16673.576,-16630.941,-16592.604,-16569.271,-16582.66,-16643.238,-16692.094,-16721.047,-16733.088,-16716.56,-16707.375,-16741.28,-16802.21,-16875.12,-17006.428,-17273.248,-17663.592,-17799.992,-17300.36
-16608.203,-16268.174,-16190.15,-16326.388,-16537.133,-16643.533,-16721.688,-16669.879,-16519.795,-16479.496,-16591.535,-16655.018,-16566.709,-16545.834,-16537.877,-16515.281,-16565.615,-16614.465,-16711.312,-16762.373,-16714.11,-16683.23,-16663.727,-16690.562,-16818.895
-16942.283,-16969.03,-16926.688,-16808.104,-16773.06,-16943.395,-17039.375,-16895.635,-16793.059,-16859.688,-16830.758,-16790.773,-16845.29,-16815.61,-16840.078,-16835.842,-16713.527,-16862.984,-17279.6,-17450.578,-17036.47,-16449.352,-16251.662,-16237.209,-16249.576
-16418.918,-16612.953,-16749.55,-16731.701,-16628.94,-16668.229,-16699.262,-16713.107,-16762.268,-16723.178,-16714.307,-16760.299,-16752.787,-16646.078,-16582.496,-16777.459,-17078.26,-17252.502,-17109.941,-16801.645,-16736.08,-16777.879,-16780.867,-16729.32,-16554.576
-16446.393,-16484.666,-16627.469,-16768.156,-16782.553,-16688.852,-16573.43,-16556.162,-16589.824,-16585.197,-16532.584,-16535.066,-16609.625,-16618.97,-16660.705,-16672.078,-16606.05,-16628.107,-16652.611,-16687.525,-16730.168,-16706.826,-16683.082,-16660.162,-16645.658
-16627.365,-16625.076,-16661.54,-16675.729,-16661.986,-16636.238,-16641.016,-16674.053,-16718.201,-16880.479,-17226.113,-17427.4,-17172.77,-16925.832,-16963.049,-16982.781,-17015.9,-16964.656,-16775.521,-16778.36,-16879.463,-16958.664,-16998.113,-16799.334,-16627.555
-16608.352,-16472.469,-16377.6455,-16359.8545,-16370.208,-16499.297,-16502.72,-16434.555,-16483.572,-16531.777,-16601.678,-16662.172,-16676.012,-16686.117,-16674.121,-16698.95,-16725.924,-16692.926,-16669.256,-16727.664,-16850.854,-16954.41,-17048.701,-17186.883,-17351.275
-17461.875,-17466.256,-17314.463,-16930.803,-16541.506,-16372.503,-16288.728,-16311.156,-16411.574,-16451.334,-16589.473,-16707.156,-16711.225,-16852.078,-17209.69,-17776.62,-18114.281,-17832.297,-17239.766,-16585.602,-16053.729,-15913.89,-16040.673,-16199.836,-16381.366
-16512.494,-16598.578,-16668.908,-16651.8,-16630.033,-16590.113,-16528.033,-16492.42,-16449.81,-16473.346,-16568.336,-16691.693,-16770.746,-16780.479,-16775.414,-16775.41,-16861.725,-16891.002,-16772.92,-16713.611,-16721.443,-16735.312,-16761.723,-16789.473,-16812.14
-16787.97,-16760.3,-16840.246,-16949.682,-16903.07,-16783.053,-16730.588,-16730.562,-16709.889,-16592.959,-16590.455,-16718.822,-16717.79,-16728.678,-16786.66,-16739.31,-16655.31,-16626.797,-16656.453,-16666.953,-16684.719,-16659.355,-16537.318,-16453.744,-16404.592
-16438.46,-16606.217,-16745.48,-16747.164,-16678.344,-16629.03,-16581.193,-16605.742,-16733.822,-16954.541,-17191.701,-17135.225,-16922.66,-16828.842,-16737.936,-16659.557,-16624.254,-16614.18,-16577.945,-16500.9,-16505.215,-16512.104,-16527.113,-16628.463,-16640.443
-16666.8,-16848.277,-16868.861,-16820.748,-16971.277,-17057.934,-17032.271,-16948.943,-16864.14,-16861.023,-16725.344,-16606.191,-16659.85,-16760.049,-16840.168,-16817.387,-16791.453,-16683.537,-16583.22,-16742.014,-16923.24,-17081.81,-17191.162,-16993.322,-16703.773
-16591.36,-16479.559,-16398.867,-16449.486,-16470.44,-16512.31,-16535.79,-16502.197,-16488.672,-16430.023,-16419.146,-16482.781,-16708.166,-17111.182,-17344.62,-17393.164,-17302.797,-16984.35,-16764.81,-16807.723,-16933.195,-17116.078,-17139.979,-16959.691,-16827.346
-16678.35,-16617.4,-16655.002,-16591.652,-16673.402,-17037.84,-17402.066,-17430.822,-17182.645,-16871.742,-16458.797,-16104.511,-15947.969,-15947.47,-16123.618,-16349.162,-16547.525,-16708.164,-16783.637,-16812.643,-16779.316,-16731.662,-16788.42,-16998.324,-17247.53
-17135.504,-16669.543,-16330.019,-16181.51,-16183.226,-16399.736,-16661.424,-16810.012,-16782.594,-16750.992,-16858.34,-16894.969,-16852.117,-16872.047,-16881.44,-16760.25,-16619.463,-16562.824,-16464.986,-16404.639,-16384.938,-16304.638,-16279.692,-16295.261,-16338.132
-16410.607,-16494.361,-16643.43,-16808.691,-16921.31,-16945.062,-16920.916,-16931.398,-17022.898,-17203.88,-17411.012,-17458.084,-17165.764,-16761.682,-16482.309,-16279.635,-16209.101,-16238.132,-16289.684,-16342.936,-16368.914,-16444.318,-16577.965,-16866.104,-17234.717
-17357.605,-17278.295,-17137.754,-17212.754,-17595.047,-17724.803,-17476.318,-17002.357,-16445.664,-16263.332,-16270.812,-16224.141,-16370.104,-16526.408,-16547.818,-16513.164,-16510.916,-16576.441,-16505.3,-16415.61,-16433.041,-16479.46,-16570.896,-16577.748,-16520.557
-16500.787,-16495.809,-16517.887,-16590.668,-16682.623,-16705.7,-16744.715,-16817.424,-16855.832,-16937.715,-17059.85,-17241.172,-17353.588,-17203.805,-16962.637,-16703.676,-16424.57,-16335.735,-16362.39,-16345.264,-16385.016,-16442.342,-16484.031,-16559.096,-16609.91
-16653.926,-16668.23,-16646.926,-16646.941,-16660.523,-16700.121,-16705.695,-16683.266,-16662.06,-16617.346,-16664.004,-16780.867,-16909.62,-17088.273,-17126.324,-16920.59,-16719.322,-16650.012,-16601.912,-16579.047,-16584.68,-16587.682,-16649.78,-16725.328,-16828.83
-16997.146,-17023.37,-16840.047,-16667.137,-16550.592,-16452.967,-16449.492,-16389.227,-16312.201,-16406.21,-16497.186,-16596.56,-16765.324,-16904.06,-16962.62,-16909.553,-16861.768,-16777.387,-16662.303,-16659.422,-16658.465,-16668.494,-16686.934,-16662.91,-16654.951
-16563.621,-16502.4,-16572.006,-16641.57,-16808.176,-16988.12,-16958.348,-16829.096,-16739.865,-16683.459,-16700.668,-16818.828,-16870.727,-16761.273,-16598.043,-16521.564,-16499.557,-16458.424,-16509.16,-16574.361,-16606.045,-16649.734,-16656.613,-16717.023,-16740.406
-16691.018,-16661.37,-16685.65,-16899.277,-17196.463,-17511.46,-17746.934,-17610.588,-17304.715,-17081.031,-16811.842,-16529.176,-16319.063,-16185.363,-16214.176,-16300.259,-16424.102,-16637.13,-16711.127,-16654.363,-16556.486,-16466.473,-16450.984,-16438.805,-16491.107
-16579.691,-16683.562,-16773.082,-16713.924,-16644.795,-16652.793,-16728.436,-16827.375,-16869.229,-16956.871,-17090.754,-17176.178,-17167.145,-17082.258,-16956.521,-16757.99,-16682.604,-16784.568,-16844.762,-16947.957,-17099.912,-17135.219,-16972.012,-16606.15,-16357.258
-16314.655,-16339.443,-16479.752,-16553.777,-16534.87,-16540.535,-16534.844,-16610.28,-16852.156,-17265.908,-17386.014,-16989.213,-16690.068,-16668.73,-16855.02,-17151.078,-17148.787,-16922.764,-16717.133,-16523.977,-16452.646,-16596.951,-16933.133,-17412.73,-17816.684
-17753.531,-17149.775,-16486.242,-16128.588,-15998.634,-16032.099,-16134.813,-16208.248,-16312.815,-16407.97,-16476.91,-16564.146,-16637.523,-16651.68,-16640.193,-16706.594,-16820.047,-16915.879,-17030.477,-17121.957,-16997.824,-16711.348,-16528.707,-16434.39,-16405.434
-16451.232,-16525.125,-16643.25,-16741.533,-16843.6,-16888.4,-16818.408,-16765.121,-16702.14,-16671.188,-16713.62,-16742.64,-16766.473,-16810.373,-16877.062,-16829.328,-16711.121,-16704.383,-16682.602,-16680.31,-16733.623,-16647.844,-16551.996,-16591.6,-16679.742
-16890.553,-17241.533,-17418.896,-17269.22,-16980.303,-16723.57,-16624.848,-16651.502,-16674.486,-16785.986,-16942.596,-16861.154,-16566.363,-16360.096,-16363.438,-16447.568,-16525.398,-16609.633,-16681.645,-16714.502,-16656.508,-16566.492,-16526.385,-16500.906,-16535.22
-16584.64,-16665.598,-16875.113,-16976.95,-16851.057,-16679.506,-16595.824,-16645.51,-16742.26,-16734.146,-16659.385,-16646.365,-16644.986,-16649.652,-16682.805,-16718.256,-16790.05,-16816.643,-16771.459,-16700.354,-16605.615,-16528.07,-16500.223,-16546.31,-16598.592
-16629.986,-16656.229,-16663.38,-16719.045,-16814.564,-16954.625,-17125.904,-17159.023,-17018.984,-16878.03,-16785.38,-16705.38,-16899.225,-17287.824,-17309.945,-16962.717,-16627.893,-16439.701,-16333.121,-16325.67,-16387.482,-16412.408,-16526.3,-16761.164,-17125.62
-17448.568,-17353.412,-16992.738,-16600.89,-16328.089,-16313.262,-16341.993,-16347.497,-16411.504,-16459.66,-16507.598,-16568.217,-16601.703,-16628.016,-16642.906,-16682.068,-16744.717,-16804.104,-16849.145,-16791.672,-16771.932,-16874.129,-16871.154,-16747.346,-16628.22
-16567.574,-16576.635,-16602.035,-16620.771,-16640.389,-16716.46,-16910.625,-17086.291,-17064.51,-16959.27,-16855.902,-16711.654,-16642.113,-16587.762,-16540.363,-16618.201,-16676.13,-16809.44,-17057.535,-17152.29,-17080.213,-16852.701,-16578.768,-16483.084,-16482.615
-16479.99,-16538.758,-16614.428,-16623.793,-16628.662,-16667.623,-16671.904,-16649.648,-16637.219,-16604.812,-16602.63,-16680.936,-16730.424,-16741.92,-16799.22,-16831.646,-16927.963,-17211.812,-17417.271,-17375.697,-17142.965,-16802.443,-16637.137,-16677.28,-16683.44
-16708.64,-16840.223,-17019.045,-17125.22,-17012.984,-16770.53,-16562.203,-16473.258,-16579.8,-16786.146,-16989.424,-17176.105,-17162.795,-16824.893,-16440.01,-16313.816,-16395.113,-16481.64,-16522.021,-16601.531,-16653.379,-16639.705,-16643.266,-16609.002,-16587.275
-16590.86,-16552.723,-16546.357,-16541.004,-16540.338,-16600.242,-16713.576,-16849.58,-16915.615,-16947.518,-17013.389,-16996.197,-16830.408,-16729.205,-16832.75,-17040.83,-17271.41,-17288.83,-17001.21,-16795.404,-16802.695,-16937.275,-17327.992,-17682.623,-17530.086
-17001.863,-16507.242,-16305.18,-16265.157,-16223.995,-16274.28,-16335.965,-16394.32,-16492.445,-16550.55,-16596.137,-16607.293,-16597.771,-16588.107,-16553.676,-16533.92,-16514.162,-16508.574,-16514.125,-16528.08,-16560.123,-16585.316,-16635.938,-16688.469,-16746.848
-16845.764,-16980.701,-17132.684,-17183.875,-17111.322,-16979.174,-16857.182,-16900.81,-17064.988,-17059.684,-16821.953,-16614.877,-16565.822,-16596.826,-16601.07,-16519.732,-16516.229,-16702.883,-16988.37,-17066.25,-16804.82,-16653.477,-16690.604,-16767.117,-16861.424
-16783.178,-16675.78,-16554.346,-16485.332,-16589.406,-16617.594,-16658.574,-16698.277,-16687.71,-16670.576,-16599.848,-16604.348,-16596.412,-16604.22,-16633.033,-16637.502,-16737.475,-16825.238,-16888.484,-16892.402,-16860.404,-16844.36,-16781.947,-16820.684,-16926.654
-16946.535,-16873.617,-16845.4,-16829.67,-16717.818,-16728.598,-16818.271,-16878.17,-16834.625,-16652.887,-16581.834,-16532.654,-16520.29,-16614.893,-16676.533,-16813.654,-16944.197,-16995.988,-16947.816,-16734.162,-16603.834,-16662.672,-16794.46,-16822.893,-16676.102
-16579.77,-16608.406,-16639.848,-16650.219,-16669.082,-16713.242,-16773.375,-16812.512,-16822.188,-16860.36,-16890.44,-16839.713,-16744.0,-16563.781,-16389.42,-16384.17,-16425.86,-16463.623,-16508.344,-16542.176,-16618.91,-16691.074,-16766.05,-16809.654,-16791.145
-16784.494,-16757.338,-16755.77,-16804.123,-16841.367,-16840.193,-16791.346,-16739.766,-16667.416,-16604.219,-16609.979,-16657.592,-16691.111,-16681.918,-16734.83,-16798.3,-16748.48,-16706.617,-16697.225,-16705.014,-16800.486,-16896.014,-16893.646,-16799.463,-16671.893
-16571.078,-16511.455,-16518.771,-16592.865,-16700.863,-16818.9,-16912.941,-16909.357,-16845.564,-16840.45,-16828.324,-16814.168,-16819.326,-16779.377,-16802.586,-16819.895,-16773.031,-16806.582,-16816.576,-16701.322,-16580.99,-16520.506,-16470.79,-16470.527,-16571.822
-16702.89,-16776.834,-16799.068,-16891.47,-16937.09,-16784.576,-16723.652,-16850.0,-16896.312,-16960.889,-17146.01,-17092.87,-16907.414,-16984.262,-17047.615,-16914.012,-16773.66,-16662.303,-16604.918,-16583.865,-16602.957,-16649.746,-16674.045,-16796.596,-16974.998
-17055.596,-16933.771,-16672.832,-16563.738,-16537.707,-16479.777,-16465.97,-16452.447,-16489.01,-16605.607,-16765.547,-16810.447,-16711.428,-16714.297,-16723.588,-16681.953,-16752.688,-16807.348,-16778.932,-16779.18,-16724.486,-16573.635,-16529.443,-16614.879,-16710.838
-16756.918,-16794.064,-16995.088,-17135.514,-17021.848,-16895.049,-16727.658,-16555.514,-16537.078,-16554.176,-16577.691,-16635.535,-16741.516,-16859.201,-16819.754,-16679.55,-16614.377,-16576.012,-16559.44,-16591.916,-16602.186,-16660.309,-16723.332,-16691.84,-16660.195
-16628.387,-16613.285,-16649.049,-16680.803,-16727.852,-16787.443,-16805.307,-16774.469,-16718.854,-16650.447,-16601.334,-16591.467,-16602.432,-16636.383,-16702.965,-16796.107,-16864.646,-16937.752,-17012.11,-16956.113,-16853.447,-16760.537,-16685.674,-16736.28,-16738.146
-16670.977,-16676.463,-16693.969,-16718.746,-16671.28,-16605.375,-16664.492,-16766.873,-16797.64,-16695.285,-16608.885,-16601.57,-16597.086,-16623.963,-16643.143,-16663.363,-16666.598,-16682.842,-16845.428,-16983.213,-16872.363,-16711.68,-16708.555,-16752.77,-16881.469
-17122.504,-17350.441,-17491.361,-17392.668,-17162.465,-16962.842,-16690.406,-16393.883,-16246.537,-16287.602,-16376.157,-16437.76,-16510.139,-16555.676,-16572.553,-16644.877,-16784.613,-16809.799,-16675.256,-16591.252,-16585.713,-16589.895,-16595.541,-16565.479,-16556.295
-16602.777,-16688.475,-16801.467,-16866.604,-16926.227,-17035.896,-17153.37,-17227.268,-17158.49,-16985.363,-16804.098,-16601.78,-16465.402,-16435.176,-16412.531,-16425.992,-16469.984,-16485.734,-16512.826,-16535.959,-16570.65,-16619.432,-16662.215,-16730.373,-16789.094
-16930.506,-17140.15,-17122.258,-16938.215,-16855.086,-16856.295,-16974.217,-17076.166,-16922.994,-16724.004,-16581.277,-16495.643,-16507.285,-16507.11,-16555.443,-16622.312,-16715.2,-16847.883,-16852.848,-16806.613,-16775.016,-16761.613,-16713.078,-16584.336,-16556.16
-16566.621,-16541.648,-16577.514,-16596.11,-16612.598,-16668.096,-16699.242,-16719.48,-16732.355,-16727.373,-16719.682,-16725.283,-16749.32,-16802.57,-16835.848,-16776.256,-16719.15,-16702.469,-16689.69,-16750.373,-16827.783,-16799.787,-16717.111,-16698.418,-16711.232
-16692.03,-16702.148,-16729.283,-16732.19,-16736.605,-16765.766,-16828.334,-16854.975,-16852.771,-16865.877,-16803.107,-16702.889,-16680.52,-16720.105,-16825.107,-16937.51,-16923.299,-16810.275,-16700.26,-16651.943,-16655.332,-16639.064,-16631.416,-16653.674,-16647.588
-16608.195,-16567.55,-16547.047,-16533.61,-16539.89,-16586.9,-16655.418,-16713.52,-16743.266,-16730.736,-16654.92,-16605.205,-16626.195,-16673.549,-16761.709,-16873.588,-16986.725,-16989.7,-16865.879,-16797.535,-16780.637,-16750.604,-16692.658,-16592.139,-16517.643
-16505.31,-16527.123,-16545.281,-16564.027,-16605.857,-16653.19,-16681.295,-16705.2,-16734.266,-16741.525,-16768.463,-16826.139,-16855.332,-16878.174,-17016.977,-17340.146,-17519.72,-17255.27,-16896.1,-16684.371,-16477.17,-16380.6045,-16427.26,-16484.768,-16552.055
-16561.89,-16568.07,-16692.564,-16803.818,-16769.547,-16670.182,-16653.963,-16668.654,-16649.48,-16675.36,-16685.215,-16656.465,-16614.59,-16550.12,-16570.705,-16618.725,-16624.244,-16662.777,-16709.879,-16764.86,-16828.812,-16869.547,-16877.404,-16832.867,-16775.307
-16733.094,-16689.9,-16644.436,-16593.408,-16549.172,-16536.865,-16576.59,-16670.355,-16798.139,-16992.854,-17204.42,-17234.598,-17101.855,-17029.707,-17010.545,-16899.355,-16779.309,-16723.488,-16665.86,-16629.252,-16689.635,-16826.994,-16870.557,-16920.035,-17034.146
-16948.766,-16774.732,-16568.746,-16351.218,-16308.842,-16327.567,-16396.691,-16505.896,-16671.46,-16881.19,-16926.48,-16991.799,-17150.361,-17180.467,-17230.639,-17550.746,-17748.586,-17419.203,-16985.248,-16661.29,-16443.588,-16370.172,-16266.157,-16320.501,-16441.97
-16447.426,-16510.693,-16538.814,-16576.236,-16688.033,-16767.19,-16731.002,-16608.258,-16549.336,-16490.336,-16466.518,-16497.676,-16499.344,-16550.447,-16594.686,-16634.29,-16714.092,-16788.102,-16849.992,-16892.273,-16952.94,-16968.086,-16872.531,-16744.277,-16656.664
-16622.887,-16619.545,-16616.02,-16590.312,-16578.96,-16565.973,-16559.037,-16596.473,-16616.688,-16686.584,-16888.365,-17196.629,-17458.488,-17427.941,-17240.81,-17123.117,-16931.066,-16719.738,-16680.605,-16606.271,-16469.826,-16464.162,-16571.516,-16841.666,-17079.414
-16996.35,-16759.059,-16585.441,-16515.146,-16519.5,-16543.355,-16512.314,-16480.76,-16489.303,-16497.531,-16564.197,-16624.873,-16698.314,-16780.047,-16784.734,-16796.541,-16774.14,-16760.416,-16768.693,-16761.576,-16793.4,-16763.994,-16763.691,-16824.81,-16796.709
-16715.162,-16652.451,-16648.87,-16652.66,-16663.867,-16725.86,-16790.947,-16876.271,-16941.348,-16910.014,-16797.684,-16706.402,-16747.92,-16800.76,-16753.557,-16667.44,-16582.434,-16559.6,-16563.027,-16585.07,-16700.713,-16788.537,-16770.357,-16720.844,-16688.453
-16721.674,-16883.756,-17101.203,-17201.795,-17201.904,-17095.412,-16797.611,-16521.098,-16463.81,-16470.807,-16445.418,-16537.455,-16742.637,-16884.3,-16894.852,-16808.701,-16731.586,-16722.11,-16792.123,-16845.52,-16715.432,-16583.197,-16547.79,-16510.342,-16571.346
-16618.133,-16611.295,-16679.658,-16716.643,-16724.799,-16742.84,-16769.75,-16801.379,-16794.414,-16862.408,-16985.268,-17045.629,-17123.365,-17121.56,-16866.9,-16651.428,-16611.207,-16530.059,-16555.246,-16716.008,-16831.361,-16810.523,-16641.936,-16575.045,-16579.213
-16558.906,-16586.482,-16594.418,-16643.99,-16708.314,-16748.887,-16781.11,-16730.998,-16662.797,-16640.762,-16681.996,-16745.422,-16789.059,-16845.107,-16907.092,-16967.545,-17011.72,-17027.896,-17018.957,-17023.092,-17087.777,-17157.795,-17180.922,-17159.168,-16951.36
-16593.154,-16372.389,-16261.221,-16270.802,-16412.93,-16524.371,-16688.76,-16818.63,-16861.27,-16858.63,-16713.93,-16575.158,-16522.707,-16555.053,-16603.965,-16601.354,-16679.406,-16777.74,-16793.658,-16736.004,-16684.182,-16714.102,-16778.219,-16842.17,-16847.246
-16829.7,-16853.533,-16863.908,-16848.367,-16827.002,-16774.596,-16664.312,-16590.387,-16581.756,-16597.045,-16668.963,-16722.318,-16716.79,-16707.686,-16720.328,-16778.441,-16842.666,-16854.736,-16851.795,-16825.795,-16738.275,-16705.146,-16691.969,-16657.889,-16691.49
-16719.979,-16826.32,-16992.975,-17077.727,-17100.09,-16925.25,-16660.402,-16560.041,-16595.701,-16677.203,-16780.209,-17023.89,-17320.271,-17390.896,-17202.617,-16837.908,-16538.604,-16547.998,-16694.545,-16747.598,-16694.195,-16597.43,-16523.967,-16499.842,-16534.324
-16556.537,-16615.793,-16797.803,-16926.652,-16911.467,-16821.7,-16735.893,-16685.432,-16688.89,-16732.611,-16727.432,-16723.371,-16711.482,-16795.889,-17196.639,-17624.441,-17682.178,-17513.834,-17396.344,-17116.59,-16689.598,-16517.45,-16518.05,-16507.166,-16461.174
-16469.6,-16643.09,-16841.375,-16891.5,-16811.717,-16755.205,-16645.69,-16579.33,-16675.348,-16654.28,-16604.203,-16580.588,-16520.271,-16558.434,-16599.256,-16631.082,-16691.201,-16807.51,-16973.967,-16970.15,-16835.404,-16782.055,-16827.877,-16902.34,-16941.61
-16880.3,-16735.297,-16615.006,-16551.725,-16546.242,-16567.447,-16581.969,-16612.723,-16647.709,-16748.053,-16899.498,-16951.379,-16902.826,-16843.453,-16818.889,-16778.479,-16712.291,-16697.94,-16676.625,-16661.643,-16748.76,-16791.873,-16718.477,-16713.39,-16792.082
-16807.104,-16741.002,-16693.688,-16722.314,-16749.072,-16802.436,-16980.406,-17185.014,-17332.082,-17435.658,-17492.367,-17440.707,-17207.266,-16928.29,-16849.678,-16862.266,-16764.248,-16845.545,-17152.168,-17211.82,-17024.713,-16910.305,-16871.541,-16763.074,-16706.627
-16922.283,-17235.146,-17287.852,-16996.883,-16628.934,-16356.077,-16230.265,-16369.412,-16525.812,-16500.059,-16535.621,-16700.637,-16844.734,-16914.393,-16849.785,-16760.889,-16845.564,-16923.32,-16865.625,-16743.195,-16568.457,-16493.309,-16552.965,-16592.186,-16567.295
-16520.988,-16522.666,-16582.336,-16639.674,-16689.783,-16725.277,-16742.357,-16762.654,-16755.414,-16743.936,-16747.61,-16741.312,-16726.951,-16699.277,-16697.746,-16764.475,-16869.723,-16876.502,-16780.514,-16790.314,-16848.521,-16800.895,-16766.598,-16792.738,-16834.057
-16941.633,-17118.17,-17360.7,-17490.857,-17282.89,-16991.486,-16793.148,-16620.438,-16620.549,-16765.29,-16805.836,-16662.982,-16548.488,-16570.25,-16623.621,-16786.797,-16943.857,-16959.621,-16932.166,-16787.205,-16607.04,-16488.422,-16417.318,-16470.45,-16572.44
-16713.373,-16823.879,-16827.58,-16907.21,-17026.393,-17070.086,-17009.584,-16890.752,-16859.895,-16754.967,-16572.91,-16576.254,-16635.76,-16643.701,-16713.088,-16800.445,-16789.842,-16710.402,-16683.54,-16653.225,-16597.12,-16616.477,-16668.426,-16745.521,-16777.352
-16766.139,-16870.777,-16889.121,-16759.32,-16709.44,-16733.545,-16839.648,-16983.322,-17095.742,-17246.215,-17315.154,-17173.387,-16910.164,-16659.023,-16520.465,-16517.43,-16578.502,-16622.572,-16640.443,-16651.838,-16681.922,-16821.467,-17134.395,-17428.256,-17441.94
-17188.871,-16874.883,-16739.877,-16720.23,-16598.734,-16496.31,-16475.604,-16473.373,-16524.998,-16580.082,-16638.145,-16702.215,-16727.957,-16718.068,-16646.943,-16596.938,-16591.324,-16537.865,-16515.35,-16574.607,-16691.705,-16894.412,-17114.574,-17187.1,-17055.97
-16898.217,-16843.428,-16803.426,-16775.268,-16825.594,-16890.771,-16897.713,-16835.527,-16776.527,-16740.41,-16653.863,-16580.24,-16536.053,-16494.785,-16502.525,-16515.707,-16550.775,-16654.887,-16886.328,-17260.152,-17566.05,-17663.559,-17425.756,-16874.133,-16505.594
-16468.006,-16487.74,-16554.793,-16622.479,-16653.521,-16687.242,-16673.969,-16709.129,-16820.953,-17017.846,-17226.418,-17165.43,-16860.186,-16577.512,-16565.332,-16683.842,-16667.73,-16759.049,-16939.63,-16994.145,-17158.348,-17512.23,-17688.191,-17460.057,-17128.254
-16903.312,-16708.98,-16606.518,-16506.543,-16335.935,-16275.613,-16323.96,-16399.348,-16513.805,-16668.463,-16801.48,-16832.8,-16834.107,-16832.205,-16765.76,-16683.42,-16641.7,-16685.826,-16866.139,-17125.86,-17199.926,-16973.742,-16723.652,-16581.09,-16524.777
-16577.773,-16703.7,-16992.05,-17346.254,-17405.088,-17111.873,-16718.096,-16449.53,-16363.23,-16387.0,-16446.22,-16546.344,-16630.717,-16670.873,-16733.22,-16754.143,-16746.918,-16719.125,-16657.355,-16679.098,-16689.484,-16625.625,-16592.016,-16578.514,-16596.838
-16664.781,-16755.025,-16903.225,-17096.072,-17261.268,-17366.852,-17320.594,-17123.6,-16977.92,-16910.17,-16757.201,-16595.342,-16558.227,-16535.834,-16538.367,-16599.018,-16720.441,-17107.514,-17742.084,-18343.145,-18517.9,-18058.762,-17245.508,-16490.3,-16243.247
-16365.439,-16330.307,-16342.103,-16465.13,-16540.285,-16680.81,-16715.562,-16682.39,-16660.266,-16582.252,-16558.387,-16510.395,-16461.365,-16416.615,-16362.157,-16412.896,-16421.988,-16391.635,-16433.748,-16515.24,-16630.312,-16742.02,-16838.428,-16928.867,-17003.84
-17043.94,-17053.14,-17050.0,-17044.256,-16983.398,-16782.86,-16580.42,-16522.213,-16584.402,-16752.217,-16918.963,-16963.55,-16900.734,-16820.096,-16757.11,-16718.562,-16799.871,-16968.898,-17167.48,-17284.465,-17138.123,-16892.793,-16659.012,-16473.0,-16434.982
-16448.084,-16465.445,-16396.604,-16346.13,-16588.977,-17042.943,-17287.33,-17003.742,-16615.604,-16418.164,-16306.824,-16382.516,-16439.564,-16488.63,-16677.295,-16840.725,-16895.066,-16768.064,-16690.494,-16672.986,-16535.059,-16490.678,-16569.13,-16760.7,-16896.186
-16807.879,-16742.115,-16668.758,-16579.912,-16677.8,-16809.268,-16766.395,-16649.959,-16641.87,-16722.209,-16842.604,-16946.963,-16882.486,-16777.932,-16730.023,-16643.988,-16675.78,-16767.467,-16705.2,-16577.432,-16536.1,-16558.76,-16454.416,-16397.992,-16568.232
-16668.049,-16738.418,-16903.234,-16974.982,-17037.389,-17122.139,-17089.877,-17030.541,-16940.61,-16739.781,-16548.93,-16484.797,-16522.555,-16567.473,-16623.87,-16812.037,-16997.06,-17075.889,-17214.531,-17048.518,-16560.707,-16441.225,-16455.627,-16361.866,-16436.082
-16476.426,-16525.0,-16667.865,-16704.283,-16711.822,-16717.018,-16671.709,-16552.648,-16405.389,-16338.078,-16264.34,-16213.035,-16235.741,-16247.683,-16313.616,-16461.723,-16621.146,-16736.229,-16777.768,-16796.254,-16816.738,-16843.742,-16885.79,-16928.562,-16923.527
-16812.133,-16708.203,-16640.148,-16527.543,-16452.422,-16458.56,-16558.04,-16602.057,-16532.969,-16555.154,-16585.41,-16605.037,-16723.877,-16918.402,-17186.133,-17389.08,-17478.457,-17493.68,-17407.521,-17226.11,-16925.363,-16547.732,-16344.489,-16646.074,-17165.225
-17363.94,-17337.484,-17178.441,-16832.555,-16508.336,-16454.723,-16645.174,-16809.365,-16800.795,-16660.19,-16480.182,-16302.748,-16255.318,-16344.065,-16401.518,-16519.244,-16707.78,-16815.797,-16735.936,-16521.459,-16322.128,-16192.721,-16241.836,-16327.809,-16379.213
-16496.443,-16579.502,-16669.168,-16724.564,-16715.87,-16725.824,-16725.941,-16730.504,-16710.305,-16684.32,-16679.277,-16686.95,-16714.898,-16722.482,-16720.145,-16705.086,-16705.918,-16788.143,-16962.686,-17111.9,-17063.53,-16935.25,-17005.264,-17266.95,-17276.973
-16916.182,-16658.234,-16514.363,-16401.178,-16498.531,-16624.465,-16700.639,-16735.492,-16707.438,-16730.293,-16787.646,-16937.504,-17011.832,-16775.975,-16588.645,-16630.365,-16618.23,-16502.729,-16436.72,-16438.77,-16464.0,-16537.734,-16649.912,-16746.701,-16830.414
-17000.496,-17194.516,-17070.355,-16744.924,-16569.559,-16467.355,-16416.445,-16364.063,-16289.835,-16348.519,-16474.508,-16652.676,-16839.688,-16912.531,-16869.176,-16754.371,-16691.703,-16669.06,-16688.37,-16779.45,-16789.277,-16799.848,-16921.81,-16961.96,-16936.676
-16898.373,-16717.988,-16534.63,-16439.838,-16404.445,-16456.334,-16479.777,-16484.375,-16549.883,-16664.795,-16765.031,-16766.598,-16724.586,-16717.92,-16752.664,-16757.436,-16740.545,-16761.62,-16746.184,-16731.365,-16868.967,-17143.824,-17274.17,-17066.453,-16751.025
-16565.744,-16557.543,-16657.715,-16683.814,-16642.67,-16619.445,-16612.639,-16564.447,-16468.016,-16497.055,-16601.158,-16720.25,-16811.566,-16691.148,-16558.541,-16546.477,-16641.732,-16799.246,-16728.365,-16526.256,-16440.734,-16443.35,-16538.223,-16724.39,-16892.033
-16880.842,-16751.014,-16725.986,-16740.531,-16690.236,-16601.836,-16484.9,-16508.047,-16689.395,-16866.492,-16922.842,-16814.86,-16684.768,-16519.164,-16396.13,-16476.424,-16586.564,-16680.07,-16750.35,-16737.299,-16689.914,-16599.852,-16533.79,-16540.719,-16595.193
-16651.703,-16621.424,-16587.291,-16598.842,-16587.686,-16554.127,-16487.01,-16507.102,-16657.135,-16775.16,-16820.793,-16837.367,-16889.373,-16918.0,-16856.322,-16813.248,-16744.87,-16580.771,-16461.691,-16473.97,-16641.736,-16873.193,-16848.045,-16613.404,-16536.848
-16644.105,-16715.03,-16674.594,-16694.117,-16729.264,-16747.652,-16865.965,-16884.43,-16821.523,-16704.87,-16534.791,-16615.07,-16838.283,-16937.021,-16796.592,-16615.322,-16714.674,-16798.908,-16706.875,-16626.75,-16579.033,-16606.875,-16646.062,-16627.75,-16654.727
-16786.59,-16949.416,-16928.049,-16717.732,-16600.166,-16541.37,-16463.771,-16519.674,-16648.506,-16809.422,-17035.414,-17278.33,-17400.625,-17278.604,-17018.803,-16710.908,-16498.777,-16429.244,-16388.756,-16503.07,-16894.426,-17322.557,-17370.8,-17421.002,-17792.664
-17729.123,-17264.219,-16895.074,-16544.389,-16335.757,-16211.38,-16137.05,-16191.374,-16276.054,-16486.89,-16606.893,-16462.238,-16334.153,-16313.241,-16361.176,-16495.12,-16708.664,-16832.09,-16708.234,-16480.035,-16350.872,-16330.071,-16356.863,-16456.752,-16562.545
-16606.15,-16631.377,-16642.473,-16743.01,-16997.236,-17102.143,-16869.613,-16634.838,-16514.06,-16409.541,-16445.947,-16495.287,-16508.225,-16618.516,-16714.84,-16716.521,-16712.434,-16885.264,-17110.488,-17149.992,-17042.209,-16856.145,-16765.127,-16751.404,-16719.799
-16722.072,-16697.645,-16685.473,-16664.594,-16759.238,-16957.0,-16864.277,-16663.31,-16497.61,-16308.343,-16334.593,-16519.004,-16734.422,-16782.084,-16551.775,-16432.209,-16639.555,-16943.816,-16943.021,-16664.299,-16497.371,-16466.346,-16504.568,-16570.055,-16605.062
-16704.287,-16825.82,-16814.098,-16623.852,-16434.016,-16380.464,-16367.324,-16399.473,-16453.523,-16474.447,-16502.504,-16533.107,-16589.428,-16669.51,-16738.506,-16743.25,-16712.725,-16752.111,-16790.506,-16761.902,-16707.117,-16687.06,-16724.627,-16797.348,-16856.033
-16756.23,-16604.404,-16629.84,-16784.262,-16922.52,-16948.738,-16972.531,-16981.674,-16916.434,-16938.113,-16905.412,-16817.283,-16889.125,-17082.719,-17417.684,-17801.441,-17894.303,-17407.879,-16633.645,-16136.895,-15918.329,-15887.146,-15995.551,-16112.051,-16296.735
-16466.328,-16526.572,-16577.678,-16613.258,-16609.03,-16581.154,-16493.246,-16409.057,-16417.879,-16462.463,-16569.762,-16724.55,-16723.404,-16594.264,-16527.53,-16555.873,-16667.357,-16928.184,-17164.74,-17112.645,-17073.172,-17222.764,-17262.46,-17251.883,-17235.125
-17059.56,-16918.84,-17039.02,-17253.215,-17003.217,-16414.11,-16205.935,-16160.704,-16210.471,-16536.195,-16754.277,-16892.865,-16847.139,-16683.959,-16740.107,-16863.938,-16944.037,-16764.242,-16522.734,-16414.93,-16282.468,-16292.3125,-16303.622,-16326.379,-16443.057
-16499.113,-16588.85,-16660.043,-16709.98,-16756.316,-16748.07,-16750.395,-16733.684,-16694.059,-16625.064,-16550.35,-16513.06,-16489.633,-16510.807,-16532.719,-16531.303,-16555.209,-16603.238,-16670.969,-16696.764,-16681.3,-16694.96,-16720.242,-16778.79,-16893.84
-16975.902,-16990.281,-16972.154,-16889.297,-16777.719,-16695.723,-16610.535,-16619.287,-16738.21,-16923.693,-17256.143,-17402.727,-17146.984,-16956.1,-17013.46,-17148.691,-17248.469,-17079.219,-16677.357,-16424.957,-16558.695,-16947.107,-17161.781,-17017.207,-16834.617
-16924.879,-17149.092,-17078.416,-16633.795,-16313.021,-16413.307,-16671.324,-16758.18,-16621.37,-16458.014,-16386.26,-16406.484,-16421.105,-16391.373,-16478.182,-16614.85,-16677.799,-16620.992,-16501.578,-16488.074,-16521.1,-16557.137,-16510.088,-16426.168,-16470.092
-16505.607,-16596.906,-16812.63,-16953.164,-17011.068,-17202.312,-17410.324,-17265.96,-16924.861,-16625.83,-16442.14,-16431.523,-16494.256,-16592.24,-16616.99,-16702.623,-16885.148,-16800.572,-16631.938,-16608.316,-16567.193,-16629.533,-17030.682,-17457.365,-17418.65
-17231.496,-17344.37,-17457.607,-17259.574,-16785.373,-16367.77,-16374.219,-16483.512,-16480.82,-16550.648,-16544.752,-16529.518,-16498.863,-16369.504,-16339.868,-16294.79,-16272.828,-16329.504,-16347.11,-16481.19,-16782.459,-17232.422,-17640.424,-17622.352,-17231.36
-16927.598,-16794.703,-16586.373,-16425.07,-16367.529,-16372.26,-16566.777,-16829.941,-16978.252,-16962.94,-16896.738,-16894.922,-16798.64,-16567.254,-16606.213,-17084.031,-17332.293,-17001.982,-16754.373,-16871.262,-16917.398,-16735.117,-16525.303,-16425.994,-16407.88
-16486.287,-16648.26,-16821.984,-16889.29,-16642.137,-16413.123,-16431.877,-16348.098,-16242.811,-16335.929,-16546.25,-16622.812,-16551.32,-16549.146,-16487.46,-16416.156,-16473.387,-16565.896,-16711.389,-16831.715,-16881.068,-16884.242,-16819.734,-16746.277,-16710.537
