0.0,-2058.4011,-8024.1987,-12911.0,-14887.367,-16717.352,-15333.385,-14734.665,-16307.952,-15113.191,-16058.246,-16684.871,-16229.255,-17597.053,-17135.527,-17864.084,-18196.807,-17826.148,-18369.87,-17547.434,-17667.305,-17184.168,-16633.832,-16555.416,-15846.357
-15916.795,-15486.91,-15506.614,-15663.212,-15654.122,-16151.58,-16272.718,-16766.15,-17104.812,-17373.016,-17687.174,-17743.572,-17922.12,-17777.916,-17646.857,-17395.924,-17074.957,-16862.668,-16486.23,-16237.445,-15924.948,-15734.745,-15726.709,-15733.759,-15896.242
-16066.015,-16334.739,-16644.773,-16932.656,-17194.836,-17390.066,-17595.967,-17680.764,-17652.633,-17518.66,-17299.959,-17047.719,-16715.113,-16425.725,-16197.575,-16007.22,-15892.741,-15871.72,-15910.489,-15976.171,-16174.099,-16421.422,-16660.414,-16940.172,-17140.238
-17281.617,-17383.6,-17401.91,-17389.719,-17319.104,-17146.213,-16900.99,-16691.906,-16525.902,-16342.691,-16216.11,-16116.933,-16042.954,-16089.714,-16205.633,-16365.709,-16551.594,-16701.895,-16853.924,-17029.885,-17177.152,-17265.314,-17289.303,-17235.633,-17138.367
-17034.176,-16922.322,-16796.146,-16619.639,-16440.246,-16322.376,-16248.481,-16229.911,-16243.534,-16284.014,-16400.379,-16561.896,-16718.887,-16846.246,-16955.48,-17058.21,-17102.664,-17104.797,-17102.46,-17066.834,-17003.414,-16907.977,-16789.492,-16679.316,-16548.74
-16428.543,-16379.74,-16375.517,-16369.673,-16370.802,-16437.83,-16575.188,-16713.9,-16822.797,-16926.457,-17016.84,-17060.209,-17053.936,-17015.352,-16999.088,-16988.395,-16904.85,-16801.16,-16710.643,-16605.99,-16544.455,-16503.844,-16471.035,-16544.447,-16630.438
-16628.012,-16640.996,-16682.754,-16735.697,-16823.133,-16886.87,-16913.69,-16938.295,-16954.95,-16931.496,-16870.166,-16821.693,-16764.482,-16695.1,-16665.512,-16625.373,-16574.795,-16580.062,-16617.496,-16675.518,-16729.174,-16737.918,-16768.506,-16837.928,-16860.766
-16858.223,-16877.953,-16885.031,-16893.742,-16879.121,-16821.832,-16801.568,-16777.58,-16739.123,-16726.465,-16690.668,-16675.234,-16690.182,-16715.215,-16766.127,-16770.855,-16726.775,-16719.855,-16752.854,-16764.205,-16792.244,-16846.133,-16854.377,-16875.195,-16916.934
-16911.715,-16847.191,-16777.467,-16788.697,-16816.154,-16796.967,-16773.682,-16775.53,-16765.354,-16717.95,-16716.154,-16714.562,-16688.21,-16715.445,-16740.252,-16765.545,-16792.836,-16788.604,-16785.97,-16796.467,-16832.941,-16848.016,-16837.44,-16835.5,-16791.15
-16753.215,-16805.268,-16879.908,-16892.299,-16862.607,-16817.676,-16759.934,-16725.996,-16739.059,-16760.709,-16739.068,-16734.613,-16783.994,-16792.227,-16774.25,-16775.658,-16772.666,-16775.3,-16768.887,-16761.473,-16779.72,-16809.22,-16837.121,-16852.795,-16836.244
-16807.88,-16831.197,-16858.107,-16832.672,-16812.117,-16801.787,-16766.947,-16714.195,-16691.08,-16704.635,-16718.477,-16742.783,-16774.895,-16807.424,-16844.148,-16858.56,-16846.822,-16845.26,-16832.13,-16795.3,-16811.39,-16829.086,-16790.363,-16756.734,-16715.242
-16681.34,-16695.805,-16725.072,-16726.324,-16711.65,-16710.758,-16708.537,-16750.385,-16818.809,-16841.873,-16874.934,-16925.922,-16932.492,-16884.352,-16837.195,-16813.875,-16784.518,-16753.373,-16726.365,-16722.793,-16709.512,-16686.68,-16697.479,-16688.143,-16706.998
-16756.055,-16754.742,-16767.553,-16797.4,-16825.898,-16880.314,-16944.744,-16986.854,-16971.002,-16942.889,-16897.826,-16808.021,-16767.166,-16754.473,-16692.088,-16646.582,-16664.152,-16691.746,-16694.588,-16688.26,-16697.002,-16718.557,-16737.469,-16762.98,-16800.809
-16836.03,-16834.537,-16826.203,-16875.74,-16899.74,-16853.03,-16808.275,-16776.41,-16765.438,-16735.912,-16667.129,-16649.436,-16691.445,-16741.688,-16779.885,-16822.854,-16860.186,-16844.684,-16837.008,-16872.627,-16900.215,-16931.994,-16947.83,-16889.34,-16823.717
-16804.125,-16778.121,-16751.715,-16721.297,-16685.836,-16677.17,-16660.49,-16650.553,-16653.639,-16663.625,-16701.938,-16738.688,-16789.727,-16808.809,-16782.158,-16800.797,-16823.676,-16842.467,-16856.736,-16840.451,-16860.47,-16845.3,-16759.55,-16724.055,-16717.396
-16709.645,-16737.496,-16756.527,-16761.39,-16745.238,-16695.63,-16702.469,-16734.166,-16746.482,-16778.506,-16771.504,-16762.08,-16776.604,-16765.99,-16780.045,-16796.988,-16772.133,-16725.352,-16706.582,-16728.533,-16712.533,-16675.906,-16651.678,-16610.906,-16622.285
-16692.135,-16723.62,-16727.46,-16729.568,-16710.957,-16692.79,-16690.4,-16714.078,-16733.826,-16700.926,-16661.266,-16671.475,-16682.062,-16622.572,-16570.17,-16580.572,-16578.467,-16568.316,-16551.783,-16537.348,-16571.094,-16596.346,-16615.395,-16636.422,-16622.309
-16622.275,-16629.932,-16617.205,-16607.285,-16612.596,-16620.564,-16595.736,-16590.209,-16623.07,-16592.48,-16509.564,-16456.057,-16438.822,-16440.543,-16447.777,-16465.719,-16492.434,-16530.885,-16574.135,-16556.686,-16536.225,-16570.922,-16556.611,-16518.406,-16491.295
-16464.738,-16500.13,-16493.951,-16430.998,-16447.484,-16498.031,-16546.256,-16581.38,-16536.592,-16455.225,-16423.494,-16433.268,-16437.477,-16456.523,-16493.805,-16524.791,-16554.83,-16562.807,-16540.809,-16488.074,-16466.309,-16503.287,-16498.107,-16471.707,-16454.994
-16438.998,-16456.445,-16447.514,-16425.533,-16419.504,-16418.318,-16464.72,-16495.137,-16508.531,-16530.45,-16511.508,-16511.584,-16531.28,-16543.588,-16566.814,-16571.877,-16553.83,-16522.139,-16488.559,-16456.846,-16467.074,-16542.055,-16598.963,-16571.47,-16513.521
-16515.771,-16526.53,-16519.832,-16542.037,-16577.148,-16635.748,-16658.422,-16638.3,-16646.031,-16631.246,-16595.117,-16560.023,-16505.707,-16495.043,-16554.883,-16571.883,-16535.197,-16537.027,-16538.146,-16547.508,-16570.373,-16560.182,-16584.629,-16620.898,-16629.107
-16647.057,-16660.508,-16670.377,-16679.877,-16677.428,-16663.799,-16648.201,-16623.96,-16616.426,-16691.701,-16746.363,-16689.598,-16644.578,-16659.945,-16673.559,-16650.865,-16635.549,-16650.076,-16638.832,-16666.562,-16730.918,-16720.562,-16692.863,-16681.172,-16659.012
-16653.309,-16643.21,-16633.254,-16642.102,-16644.252,-16644.168,-16648.533,-16658.504,-16670.197,-16670.27,-16682.064,-16709.994,-16730.938,-16762.742,-16815.906,-16838.506,-16789.312,-16731.021,-16708.307,-16677.71,-16693.65,-16752.713,-16728.715,-16679.342,-16681.72
-16722.1,-16772.55,-16755.67,-16716.188,-16707.465,-16690.049,-16676.666,-16671.105,-16665.38,-16666.5,-16682.223,-16707.021,-16725.883,-16747.473,-16752.744,-16739.68,-16741.018,-16747.97,-16738.516,-16729.938,-16740.396,-16742.998,-16749.729,-16777.701,-16785.32
-16771.285,-16747.895,-16721.805,-16731.957,-16776.61,-16797.762,-16780.53,-16776.178,-16772.727,-16753.42,-16774.273,-16788.877,-16757.533,-16736.527,-16721.844,-16719.736,-16729.402,-16726.809,-16735.297,-16737.205,-16714.377,-16697.545,-16703.617,-16734.025,-16777.15
-16792.713,-16784.068,-16794.654,-16798.896,-16804.133,-16823.334,-16812.045,-16809.73,-16841.877,-16861.635,-16828.826,-16782.062,-16769.787,-16749.486,-16739.127,-16743.318,-16748.26,-16770.934,-16766.646,-16742.5,-16714.57,-16698.389,-16724.406,-16778.67,-16805.45
-16776.893,-16779.91,-16790.346,-16771.734,-16787.846,-16820.225,-16857.938,-16837.992,-16766.46,-16747.928,-16769.727,-16788.684,-16768.547,-16764.277,-16796.248,-16793.953,-16780.885,-16791.117,-16836.01,-16845.47,-16791.883,-16778.121,-16810.428,-16824.697,-16796.117
-16783.11,-16807.643,-16797.795,-16764.604,-16759.523,-16771.139,-16756.836,-16744.566,-16767.922,-16783.318,-16832.283,-16893.424,-16855.77,-16812.287,-16827.89,-16810.527,-16766.445,-16759.053,-16787.84,-16806.799,-16792.967,-16773.031,-16771.855,-16788.264,-16790.844
-16777.137,-16783.248,-16802.242,-16816.271,-16811.182,-16790.629,-16778.135,-16758.51,-16739.373,-16741.445,-16767.43,-16788.564,-16771.746,-16778.281,-16797.195,-16775.918,-16778.916,-16789.27,-16779.525,-16800.533,-16807.691,-16787.824,-16793.336,-16791.633,-16768.361
-16768.291,-16777.646,-16765.738,-16758.387,-16766.576,-16768.049,-16750.73,-16738.266,-16749.01,-16760.31,-16782.7,-16813.074,-16834.818,-16861.158,-16869.238,-16836.73,-16794.055,-16795.107,-16806.236,-16808.291,-16819.64,-16788.365,-16780.627,-16811.115,-16797.951
-16776.57,-16762.135,-16758.684,-16749.9,-16735.97,-16752.834,-16780.812,-16813.438,-16839.254,-16850.352,-16822.459,-16773.857,-16765.797,-16779.053,-16792.604,-16786.562,-16773.365,-16753.521,-16723.402,-16740.053,-16771.137,-16794.297,-16805.38,-16792.846,-16801.408
-16810.094,-16813.625,-16809.217,-16776.951,-16765.371,-16773.389,-16785.002,-16824.148,-16867.035,-16851.209,-16795.855,-16773.465,-16776.512,-16783.617,-16786.734,-16803.861,-16840.21,-16808.207,-16744.736,-16746.264,-16759.26,-16775.97,-16822.486,-16837.525,-16822.383
-16806.723,-16784.275,-16814.357,-16863.984,-16832.486,-16786.664,-16769.973,-16745.373,-16744.734,-16762.936,-16764.998,-16782.377,-16820.504,-16830.248,-16801.287,-16779.883,-16802.07,-16836.088,-16855.549,-16870.322,-16877.604,-16878.953,-16835.773,-16762.86,-16753.508
-16780.938,-16791.658,-16785.797,-16779.896,-16781.812,-16769.172,-16794.807,-16810.178,-16767.201,-16775.924,-16792.46,-16775.996,-16755.61,-16755.078,-16817.791,-16842.113,-16816.084,-16821.23,-16817.91,-16777.143,-16761.816,-16814.887,-16859.105,-16874.746,-16885.195
-16874.387,-16857.88,-16820.32,-16775.072,-16747.879,-16738.684,-16752.654,-16759.03,-16761.37,-16768.611,-16761.332,-16756.541,-16760.557,-16771.11,-16786.604,-16783.836,-16774.445,-16783.814,-16800.229,-16804.24,-16796.643,-16792.562,-16789.895,-16779.91,-16789.904
-16823.834,-16831.623,-16820.65,-16807.912,-16775.32,-16777.334,-16825.266,-16833.72,-16809.816,-16820.562,-16825.53,-16807.738,-16837.451,-16876.18,-16863.438,-16816.965,-16776.186,-16763.164,-16749.3,-16762.725,-16809.238,-16854.494,-16883.697,-16854.828,-16829.209
-16809.383,-16744.387,-16722.84,-16771.486,-16810.83,-16791.002,-16778.707,-16774.262,-16763.729,-16812.137,-16826.18,-16826.896,-16856.11,-16832.443,-16799.432,-16771.125,-16778.578,-16799.82,-16790.465,-16802.064,-16794.213,-16777.707,-16788.281,-16816.57,-16850.756
-16836.049,-16790.521,-16751.39,-16731.727,-16764.436,-16812.217,-16818.752,-16808.662,-16791.027,-16771.373,-16784.045,-16811.486,-16829.656,-16828.504,-16814.527,-16793.934,-16776.658,-16771.01,-16765.494,-16788.209,-16805.1,-16802.855,-16820.357,-16815.72,-16807.63
-16806.912,-16780.33,-16760.963,-16784.021,-16833.357,-16865.4,-16891.07,-16864.885,-16798.3,-16827.863,-16855.023,-16807.719,-16788.732,-16764.475,-16755.238,-16785.732,-16784.648,-16781.916,-16792.902,-16799.303,-16804.053,-16815.414,-16852.959,-16849.945,-16784.38
-16780.025,-16860.062,-16926.65,-16974.387,-16969.441,-16879.195,-16842.525,-16857.457,-16826.092,-16788.021,-16781.488,-16803.396,-16800.055,-16786.959,-16800.385,-16796.746,-16791.676,-16808.451,-16846.38,-16837.865,-16775.62,-16758.723,-16761.508,-16776.459,-16800.281
-16800.736,-16806.627,-16799.873,-16799.121,-16812.469,-16814.604,-16819.352,-16821.154,-16833.723,-16852.402,-16856.926,-16851.54,-16847.82,-16845.098,-16822.977,-16806.607,-16816.234,-16823.443,-16798.732,-16765.557,-16767.783,-16770.592,-16762.363,-16777.307,-16800.975
-16826.889,-16847.527,-16845.26,-16831.898,-16824.762,-16843.344,-16849.133,-16817.918,-16823.197,-16843.89,-16829.566,-16828.43,-16833.467,-16821.764,-16802.756,-16772.498,-16764.2,-16787.703,-16817.982,-16841.535,-16846.979,-16844.98,-16827.836,-16818.938,-16832.082
-16822.488,-16825.818,-16843.738,-16834.818,-16839.96,-16861.244,-16857.137,-16833.15,-16803.82,-16776.521,-16784.564,-16798.96,-16798.758,-16831.875,-16847.527,-16849.646,-16878.762,-16860.39,-16835.336,-16846.17,-16840.404,-16836.715,-16837.49,-16827.615,-16800.295
-16770.61,-16776.438,-16778.57,-16775.205,-16786.041,-16781.383,-16791.086,-16818.898,-16832.867,-16840.129,-16835.078,-16820.664,-16824.264,-16837.38,-16824.973,-16813.3,-16832.744,-16838.799,-16832.883,-16858.205,-16870.148,-16833.84,-16796.547,-16760.645,-16734.05
-16784.006,-16845.645,-16847.682,-16875.75,-16887.117,-16845.523,-16844.955,-16818.781,-16785.97,-16813.016,-16805.371,-16789.56,-16793.166,-16796.1,-16807.883,-16801.617,-16821.229,-16863.611,-16872.37,-16858.281,-16846.33,-16846.635,-16829.557,-16822.84,-16837.814
-16810.094,-16800.295,-16819.2,-16787.328,-16795.426,-16861.174,-16898.342,-16923.975,-16885.121,-16809.723,-16812.889,-16841.58,-16846.166,-16825.219,-16812.197,-16837.146,-16865.674,-16885.008,-16872.127,-16861.383,-16866.287,-16849.635,-16847.51,-16835.947,-16816.143
-16832.924,-16840.422,-16829.012,-16823.363,-16822.328,-16826.12,-16824.54,-16818.055,-16808.764,-16794.195,-16798.918,-16825.701,-16843.639,-16840.824,-16831.912,-16838.492,-16840.643,-16838.46,-16861.469,-16862.873,-16852.633,-16871.498,-16856.975,-16827.848,-16838.875
-16870.508,-16897.424,-16894.486,-16880.93,-16852.959,-16834.117,-16848.31,-16809.73,-16787.832,-16840.453,-16860.992,-16875.973,-16880.75,-16840.61,-16829.152,-16830.123,-16824.092,-16827.996,-16825.613,-16821.695,-16805.96,-16804.45,-16829.598,-16833.879,-16818.465
-16805.592,-16809.15,-16818.904,-16827.71,-16839.268,-16831.379,-16820.578,-16823.502,-16827.6,-16830.111,-16827.24,-16821.926,-16819.434,-16816.805,-16815.79,-16829.125,-16842.076,-16865.139,-16909.969,-16906.055,-16861.154,-16845.828,-16861.17,-16869.006,-16847.441
-16848.508,-16880.623,-16890.143,-16878.805,-16862.53,-16851.553,-16842.955,-16840.379,-16846.473,-16815.223,-16777.828,-16788.906,-16779.635,-16765.283,-16817.502,-16867.965,-16900.97,-16953.797,-16956.93,-16896.316,-16857.959,-16846.275,-16842.045,-16853.31,-16854.441
-16857.025,-16835.799,-16803.785,-16816.227,-16815.805,-16827.846,-16837.117,-16807.965,-16818.688,-16812.219,-16805.162,-16828.719,-16801.898,-16787.27,-16804.117,-16805.379,-16791.045,-16777.326,-16786.365,-16787.848,-16787.895,-16808.084,-16841.266,-16856.877,-16841.441
-16867.188,-16905.723,-16888.275,-16883.14,-16898.633,-16864.906,-16820.342,-16809.686,-16832.219,-16904.57,-16914.285,-16825.883,-16796.572,-16822.35,-16849.697,-16871.309,-16845.14,-16815.303,-16790.85,-16763.414,-16787.611,-16831.162,-16837.762,-16817.543,-16804.494
-16803.588,-16797.111,-16801.72,-16827.617,-16855.238,-16858.098,-16835.018,-16811.922,-16797.123,-16809.371,-16840.438,-16846.203,-16840.814,-16850.13,-16866.22,-16881.395,-16875.797,-16851.371,-16846.998,-16835.867,-16803.36,-16796.871,-16790.46,-16791.09,-16803.92
-16794.791,-16799.398,-16795.564,-16796.455,-16831.492,-16860.48,-16888.99,-16891.934,-16874.104,-16846.867,-16817.201,-16839.062,-16862.277,-16853.986,-16844.639,-16836.914,-16817.338,-16785.18,-16783.775,-16789.863,-16792.15,-16811.977,-16826.824,-16847.354,-16855.11
-16839.082,-16822.777,-16809.465,-16814.148,-16846.033,-16870.814,-16861.209,-16867.373,-16884.521,-16876.373,-16875.377,-16864.41,-16818.13,-16782.986,-16784.469,-16770.893,-16785.654,-16864.125,-16877.37,-16860.918,-16875.793,-16865.254,-16863.758,-16857.83,-16853.715
-16872.658,-16871.68,-16841.557,-16787.953,-16777.51,-16793.19,-16791.396,-16808.695,-16824.844,-16834.38,-16815.848,-16796.418,-16807.719,-16801.348,-16799.883,-16792.336,-16782.176,-16785.537,-16779.936,-16794.916,-16796.703,-16792.137,-16812.383,-16816.396,-16825.576
-16837.502,-16837.182,-16852.828,-16864.197,-16850.154,-16839.393,-16854.328,-16872.113,-16887.025,-16911.396,-16927.682,-16907.154,-16839.799,-16810.795,-16838.58,-16846.217,-16885.123,-16891.775,-16819.92,-16812.447,-16808.098,-16792.445,-16819.746,-16814.148,-16819.492
-16823.031,-16806.775,-16822.033,-16820.014,-16808.53,-16801.521,-16794.748,-16803.111,-16802.59,-16798.867,-16789.834,-16780.174,-16796.48,-16817.668,-16827.645,-16840.986,-16848.594,-16835.988,-16834.994,-16865.738,-16902.445,-16927.168,-16944.2,-16949.213,-16903.586
-16827.326,-16795.09,-16783.316,-16789.092,-16830.639,-16824.41,-16815.756,-16846.135,-16820.281,-16796.83,-16818.922,-16838.863,-16862.719,-16857.42,-16837.463,-16824.96,-16804.193,-16797.607,-16791.406,-16803.852,-16835.262,-16830.31,-16814.557,-16818.64,-16834.408
-16845.162,-16838.818,-16837.238,-16860.512,-16888.066,-16900.393,-16899.99,-16880.502,-16889.31,-16915.904,-16882.73,-16842.49,-16830.76,-16850.422,-16890.62,-16866.953,-16834.396,-16847.455,-16832.97,-16809.84,-16829.023,-16847.35,-16829.172,-16814.424,-16821.975
-16842.328,-16874.066,-16893.387,-16883.053,-16852.965,-16814.904,-16775.867,-16792.736,-16848.908,-16848.027,-16821.812,-16818.467,-16843.379,-16873.16,-16876.7,-16875.48,-16842.99,-16819.48,-16847.547,-16848.951,-16833.035,-16838.572,-16854.086,-16864.504,-16852.084
-16833.514,-16820.945,-16815.482,-16812.418,-16810.129,-16819.77,-16821.117,-16825.043,-16858.61,-16884.562,-16873.7,-16847.83,-16835.797,-16832.523,-16838.566,-16857.574,-16860.713,-16857.236,-16872.174,-16891.45,-16870.871,-16817.621,-16803.531,-16816.6,-16821.738
-16830.523,-16830.023,-16835.879,-16866.027,-16882.535,-16893.654,-16921.678,-16931.002,-16911.787,-16874.338,-16852.225,-16844.938,-16825.932,-16842.578,-16861.352,-16854.982,-16858.14,-16851.096,-16855.154,-16847.143,-16809.541,-16793.1,-16797.178,-16812.777,-16817.092
-16819.787,-16838.52,-16835.102,-16823.896,-16828.914,-16848.797,-16878.33,-16871.85,-16852.854,-16866.215,-16852.637,-16828.61,-16849.818,-16868.527,-16858.266,-16829.12,-16805.389,-16801.945,-16804.184,-16823.598,-16847.979,-16836.389,-16815.27,-16824.703,-16830.752
-16847.248,-16876.207,-16862.35,-16863.176,-16868.002,-16843.244,-16864.412,-16879.363,-16858.84,-16863.902,-16869.344,-16855.191,-16845.682,-16858.982,-16862.895,-16839.117,-16827.924,-16850.973,-16908.912,-16937.326,-16897.709,-16856.229,-16843.486,-16857.887,-16867.244
-16831.826,-16807.033,-16814.506,-16804.045,-16811.32,-16857.523,-16877.186,-16861.74,-16848.914,-16869.633,-16897.15,-16877.068,-16844.553,-16822.295,-16789.45,-16784.986,-16808.041,-16812.115,-16834.912,-16864.113,-16844.97,-16837.143,-16857.28,-16849.072,-16824.26
-16827.15,-16840.844,-16831.758,-16820.658,-16819.863,-16819.475,-16809.8,-16798.877,-16809.785,-16835.781,-16857.738,-16860.412,-16834.033,-16802.406,-16807.473,-16823.898,-16830.22,-16840.305,-16827.137,-16823.023,-16828.469,-16807.924,-16806.975,-16814.102,-16822.77
-16844.186,-16840.58,-16838.367,-16866.5,-16910.508,-16940.193,-16912.62,-16884.68,-16864.945,-16806.262,-16809.342,-16829.54,-16812.87,-16830.719,-16814.984,-16817.566,-16856.71,-16844.043,-16824.25,-16814.543,-16820.111,-16810.521,-16794.842,-16806.248,-16799.861
-16786.611,-16768.902,-16770.14,-16801.828,-16823.057,-16836.488,-16828.693,-16819.646,-16833.188,-16834.47,-16840.34,-16871.639,-16892.336,-16898.434,-16890.674,-16859.713,-16830.197,-16814.547,-16812.594,-16806.092,-16788.465,-16777.008,-16765.566,-16767.49,-16791.867
-16811.664,-16816.889,-16827.477,-16841.309,-16836.168,-16837.41,-16857.314,-16849.793,-16832.32,-16843.389,-16837.086,-16835.35,-16859.797,-16834.12,-16794.125,-16795.105,-16819.94,-16849.4,-16852.717,-16864.354,-16870.98,-16839.445,-16825.69,-16824.201,-16837.209
-16857.824,-16861.75,-16894.477,-16922.63,-16898.805,-16846.37,-16825.117,-16830.451,-16814.412,-16816.885,-16802.217,-16779.97,-16796.758,-16809.992,-16840.176,-16844.879,-16843.0,-16881.385,-16894.066,-16894.604,-16882.703,-16860.723,-16852.834,-16863.295,-16856.705
-16803.734,-16792.709,-16798.434,-16803.229,-16831.441,-16822.943,-16832.264,-16848.584,-16848.984,-16856.09,-16827.816,-16813.074,-16813.326,-16810.672,-16827.209,-16825.307,-16813.646,-16810.334,-16818.297,-16841.068,-16841.459,-16814.988,-16816.125,-16850.031,-16864.889
-16851.904,-16832.826,-16851.248,-16900.236,-16892.607,-16849.398,-16835.727,-16832.047,-16816.838,-16797.979,-16796.053,-16802.152,-16812.652,-16828.273,-16833.592,-16841.652,-16840.182,-16835.365,-16843.518,-16828.475,-16797.541,-16775.543,-16764.842,-16778.924,-16799.58
-16815.664,-16854.572,-16886.527,-16880.793,-16864.566,-16852.97,-16849.201,-16843.7,-16842.725,-16861.16,-16894.746,-16892.098,-16838.512,-16831.498,-16837.998,-16821.91,-16830.535,-16826.81,-16840.6,-16862.955,-16862.76,-16845.754,-16824.568,-16845.828,-16835.17
-16819.53,-16818.762,-16779.445,-16795.162,-16816.324,-16813.28,-16839.188,-16871.654,-16919.025,-16943.025,-16975.178,-17014.012,-16965.295,-16888.684,-16831.547,-16778.355,-16800.482,-16851.584,-16832.254,-16833.574,-16855.637,-16843.447,-16841.969,-16836.03,-16819.635
-16794.121,-16786.63,-16799.09,-16806.701,-16822.656,-16813.854,-16814.033,-16823.596,-16829.656,-16860.797,-16869.3,-16881.504,-16892.236,-16889.785,-16910.1,-16904.652,-16897.496,-16896.154,-16839.357,-16787.693,-16811.03,-16842.033,-16832.326,-16825.33,-16822.508
-16822.855,-16826.785,-16837.533,-16873.293,-16886.146,-16874.203,-16864.824,-16862.453,-16859.416,-16834.365,-16833.715,-16848.158,-16859.723,-16872.271,-16841.88,-16832.459,-16862.533,-16882.764,-16903.117,-16885.832,-16846.324,-16847.441,-16869.525,-16872.967,-16858.701
-16844.318,-16831.127,-16824.49,-16839.176,-16880.625,-16913.127,-16918.658,-16917.42,-16887.383,-16852.055,-16863.857,-16919.316,-16954.7,-16910.164,-16863.531,-16837.508,-16795.719,-16795.82,-16805.295,-16806.406,-16835.928,-16847.918,-16861.256,-16886.137,-16881.508
-16887.035,-16887.594,-16837.672,-16797.09,-16795.11,-16814.041,-16859.71,-16889.367,-16872.654,-16860.947,-16895.438,-16928.006,-16898.947,-16892.293,-16945.123,-16930.29,-16855.236,-16814.084,-16809.135,-16829.816,-16834.62,-16825.812,-16862.367,-16901.717,-16903.244
-16881.674,-16850.797,-16834.768,-16824.871,-16828.395,-16845.875,-16842.557,-16833.012,-16846.064,-16878.082,-16899.178,-16897.76,-16887.438,-16856.678,-16824.154,-16837.346,-16866.727,-16849.828,-16798.38,-16785.797,-16839.541,-16885.064,-16868.412,-16837.73,-16843.521
-16861.994,-16856.242,-16833.75,-16803.744,-16787.283,-16808.404,-16831.977,-16849.172,-16898.125,-16921.87,-16863.123,-16822.162,-16842.902,-16849.861,-16870.594,-16945.197,-17005.605,-16977.084,-16872.076,-16798.111,-16787.06,-16785.664,-16789.705,-16804.303,-16824.926
-16822.37,-16829.24,-16872.252,-16864.072,-16859.799,-16905.82,-16924.965,-16917.902,-16909.225,-16922.291,-16886.727,-16840.4,-16884.768,-16882.469,-16864.48,-16888.191,-16850.066,-16827.676,-16842.28,-16842.982,-16851.486,-16850.803,-16849.467,-16850.611,-16833.906
-16810.729,-16799.986,-16806.496,-16821.025,-16829.742,-16830.164,-16859.166,-16901.195,-16881.826,-16819.846,-16794.215,-16817.418,-16842.127,-16852.898,-16848.21,-16841.736,-16857.646,-16863.12,-16875.807,-16889.39,-16863.17,-16846.154,-16847.717,-16853.613,-16824.93
-16783.059,-16797.74,-16814.02,-16835.027,-16846.807,-16826.953,-16825.027,-16825.613,-16848.648,-16866.826,-16856.941,-16850.441,-16843.613,-16858.445,-16863.43,-16847.09,-16826.297,-16815.355,-16818.146,-16798.92,-16820.223,-16887.191,-16920.232,-16897.027,-16836.709
-16806.229,-16812.102,-16836.604,-16858.848,-16873.283,-16894.47,-16849.72,-16810.81,-16844.008,-16847.98,-16851.488,-16832.848,-16762.904,-16749.688,-16771.998,-16771.57,-16770.324,-16785.121,-16802.395,-16808.475,-16825.027,-16840.922,-16834.08,-16830.4,-16844.197
-16867.924,-16870.273,-16854.05,-16880.598,-16917.068,-16914.729,-16878.396,-16828.426,-16817.701,-16805.201,-16787.844,-16794.758,-16783.91,-16794.9,-16799.89,-16793.229,-16828.174,-16840.172,-16836.238,-16827.033,-16805.312,-16797.447,-16788.186,-16785.984,-16776.158
-16782.777,-16810.336,-16825.168,-16862.2,-16872.488,-16840.162,-16835.227,-16852.725,-16867.797,-16880.9,-16892.889,-16884.322,-16860.357,-16864.646,-16902.752,-16909.51,-16862.207,-16828.322,-16832.951,-16843.252,-16834.973,-16828.678,-16826.291,-16777.514,-16748.268
-16798.451,-16833.75,-16845.434,-16860.016,-16851.502,-16839.678,-16821.568,-16800.309,-16782.133,-16780.326,-16793.662,-16784.477,-16796.816,-16828.623,-16829.629,-16820.738,-16832.584,-16856.834,-16840.31,-16806.955,-16819.56,-16847.428,-16853.31,-16851.328,-16845.055
-16834.426,-16859.086,-16895.623,-16875.512,-16841.277,-16840.148,-16843.564,-16849.25,-16830.977,-16772.207,-16765.29,-16833.426,-16884.555,-16895.404,-16871.578,-16828.215,-16877.768,-16959.838,-16921.365,-16868.074,-16872.922,-16898.824,-16896.145,-16828.738,-16795.111
-16803.209,-16812.346,-16819.367,-16811.139,-16821.6,-16816.4,-16801.975,-16818.51,-16838.74,-16844.648,-16826.49,-16844.234,-16894.014,-16878.72,-16843.234,-16862.273,-16889.934,-16889.332,-16867.121,-16840.225,-16828.533,-16811.549,-16810.158,-16842.826,-16844.197
-16814.396,-16803.068,-16819.771,-16847.94,-16855.467,-16841.89,-16835.994,-16837.135,-16848.666,-16879.357,-16867.809,-16855.76,-16894.115,-16868.852,-16852.549,-16888.639,-16865.656,-16847.877,-16830.764,-16814.672,-16834.37,-16829.24,-16818.47,-16805.04,-16836.453
-16898.488,-16905.498,-16907.174,-16892.498,-16858.83,-16842.14,-16837.896,-16851.701,-16854.291,-16838.977,-16833.248,-16852.227,-16860.697,-16837.373,-16813.945,-16815.46,-16840.635,-16845.475,-16837.605,-16833.871,-16837.615,-16863.656,-16852.826,-16821.406,-16822.666
-16823.934,-16829.08,-16841.217,-16842.781,-16845.908,-16871.277,-16924.553,-16947.78,-16920.85,-16901.766,-16868.598,-16815.346,-16802.252,-16807.098,-16799.256,-16795.828,-16802.56,-16797.125,-16779.941,-16783.621,-16793.271,-16807.24,-16846.396,-16870.545,-16869.412
-16864.807,-16834.229,-16810.299,-16821.248,-16834.07,-16862.076,-16885.875,-16875.396,-16857.21,-16868.373,-16915.697,-16937.695,-16928.775,-16909.195,-16855.805,-16815.838,-16809.246,-16799.398,-16786.305,-16766.744,-16775.895,-16809.658,-16818.084,-16841.691,-16862.047
-16850.195,-16836.336,-16819.242,-16832.756,-16846.775,-16828.623,-16834.8,-16855.924,-16865.133,-16877.484,-16890.486,-16880.457,-16844.727,-16824.297,-16837.758,-16829.113,-16801.633,-16809.281,-16824.547,-16853.293,-16866.014,-16835.451,-16841.021,-16858.79,-16880.492
-16883.18,-16834.178,-16840.158,-16832.672,-16795.38,-16853.627,-16901.928,-16893.68,-16898.0,-16895.584,-16881.213,-16871.053,-16867.885,-16853.846,-16832.838,-16823.209,-16820.594,-16829.93,-16827.402,-16806.807,-16801.867,-16801.457,-16786.312,-16777.328,-16798.045
-16823.72,-16844.38,-16865.605,-16863.195,-16858.402,-16847.502,-16831.95,-16830.273,-16802.697,-16805.488,-16856.484,-16886.523,-16914.635,-16921.938,-16891.049,-16858.201,-16824.258,-16814.018,-16819.738,-16791.752,-16770.066,-16785.725,-16825.748,-16872.88,-16883.084
-16892.896,-16886.441,-16845.39,-16852.973,-16857.453,-16858.791,-16893.723,-16901.73,-16906.014,-16884.24,-16830.24,-16801.607,-16787.621,-16816.074,-16840.455,-16822.074,-16854.498,-16873.047,-16853.453,-16855.15,-16820.773,-16817.145,-16855.379,-16849.531,-16836.047
-16854.643,-16881.63,-16856.924,-16837.76,-16862.566,-16863.924,-16875.174,-16905.63,-16933.21,-16929.916,-16868.05,-16854.484,-16850.762,-16780.615,-16783.191,-16827.275,-16839.367,-16847.227,-16838.268,-16857.658,-16852.373,-16827.04,-16877.963,-16921.25,-16893.021
-16828.662,-16784.998,-16783.975,-16791.277,-16790.787,-16795.533,-16820.086,-16830.92,-16825.65,-16820.854,-16811.342,-16843.291,-16888.693,-16886.654,-16871.645,-16843.758,-16824.53,-16862.541,-16883.863,-16864.357,-16860.447,-16850.553,-16838.555,-16867.848,-16893.756
-16893.299,-16913.994,-16901.965,-16831.236,-16795.918,-16817.586,-16821.225,-16776.766,-16765.266,-16780.402,-16789.756,-16844.646,-16868.783,-16831.506,-16825.82,-16831.363,-16838.25,-16918.781,-16940.496,-16830.129,-16845.074,-16966.578,-16991.016,-16936.025,-16834.309
-16771.434,-16762.342,-16751.09,-16765.188,-16795.145,-16847.62,-16897.693,-16883.084,-16807.678,-16765.283,-16818.232,-16856.492,-16839.516,-16814.898,-16789.22,-16786.871,-16812.855,-16842.32,-16849.732,-16860.754,-16866.307,-16854.385,-16878.049,-16903.242,-16886.37
-16865.188,-16861.459,-16843.04,-16837.236,-16895.586,-16955.154,-16928.861,-16848.127,-16802.18,-16759.275,-16744.85,-16808.656,-16864.893,-16917.889,-16930.47,-16878.643,-16867.705,-16863.871,-16834.244,-16828.055,-16822.785,-16808.494,-16825.055,-16842.094,-16811.906
-16790.021,-16800.88,-16823.766,-16863.008,-16861.568,-16810.58,-16796.598,-16842.525,-16905.639,-16984.514,-17049.066,-16993.248,-16850.697,-16755.564,-16776.795,-16842.736,-16823.516,-16791.242,-16786.959,-16776.4,-16813.156,-16843.057,-16830.373,-16821.326,-16819.822
-16818.12,-16821.568,-16839.457,-16842.535,-16813.55,-16790.857,-16791.338,-16793.344,-16827.621,-16872.299,-16863.506,-16843.195,-16830.516,-16849.162,-16885.38,-16877.818,-16855.152,-16814.604,-16775.715,-16773.254,-16825.652,-16920.281,-16922.422,-16869.525,-16877.746
-16869.207,-16832.809,-16841.85,-16866.637,-16862.201,-16865.598,-16882.154,-16849.744,-16837.025,-16899.592,-16876.012,-16770.604,-16734.195,-16739.355,-16756.648,-16796.424,-16841.91,-16855.287,-16840.262,-16840.123,-16813.863,-16793.967,-16817.318,-16817.447,-16819.66
-16859.469,-16924.281,-16984.225,-16981.17,-16961.627,-16965.959,-16915.18,-16830.068,-16775.078,-16747.879,-16762.176,-16770.025,-16742.785,-16736.799,-16757.705,-16782.766,-16790.64,-16778.629,-16791.143,-16810.12,-16803.338,-16828.355,-16850.115,-16831.748,-16861.107
-16905.723,-16902.625,-16871.723,-16853.562,-16899.447,-16938.71,-16917.668,-16888.203,-16829.992,-16764.32,-16777.791,-16835.072,-16868.773,-16878.014,-16857.172,-16810.992,-16778.566,-16771.545,-16772.625,-16785.867,-16804.553,-16828.67,-16859.934,-16849.453,-16802.818
-16773.398,-16782.383,-16825.574,-16857.004,-16847.518,-16842.49,-16877.137,-16897.547,-16877.037,-16856.838,-16835.633,-16811.748,-16806.262,-16806.842,-16799.62,-16794.803,-16800.008,-16792.01,-16772.846,-16794.766,-16835.434,-16846.047,-16855.076,-16866.342,-16865.152
-16872.953,-16865.982,-16822.648,-16838.611,-16918.799,-16939.262,-16919.385,-16896.73,-16874.502,-16870.145,-16845.893,-16839.38,-16834.855,-16804.967,-16818.594,-16818.75,-16792.01,-16809.072,-16859.508,-16898.389,-16862.982,-16779.002,-16759.287,-16830.402,-16901.863
-16907.26,-16867.51,-16833.395,-16826.51,-16821.594,-16816.41,-16819.799,-16825.15,-16829.578,-16825.543,-16819.639,-16824.416,-16855.627,-16894.213,-16884.273,-16847.59,-16844.598,-16856.102,-16856.049,-16879.486,-16908.34,-16882.707,-16871.469,-16911.354,-16908.67
-16852.695,-16777.006,-16767.83,-16821.309,-16794.879,-16772.904,-16802.205,-16823.627,-16859.64,-16843.152,-16805.74,-16800.873,-16815.32,-16863.363,-16881.201,-16853.11,-16810.838,-16789.979,-16802.695,-16802.826,-16790.012,-16809.38,-16881.957,-16921.363,-16913.5
-16909.256,-16873.094,-16865.633,-16890.672,-16874.555,-16854.363,-16843.494,-16849.684,-16864.9,-16886.203,-16951.531,-16960.936,-16882.305,-16844.602,-16822.81,-16785.57,-16802.434,-16829.564,-16838.645,-16876.154,-16901.186,-16887.227,-16889.123,-16880.232,-16832.623
-16815.574,-16832.82,-16828.002,-16797.914,-16793.854,-16814.756,-16817.307,-16821.43,-16830.488,-16826.504,-16820.068,-16836.602,-16868.025,-16867.762,-16859.98,-16871.428,-16860.074,-16830.098,-16845.81,-16873.55,-16855.469,-16854.623,-16837.701,-16788.922,-16819.898
-16851.066,-16835.086,-16863.871,-16867.117,-16827.5,-16822.676,-16827.553,-16842.316,-16852.242,-16833.826,-16832.293,-16842.334,-16842.457,-16840.002,-16836.924,-16816.44,-16822.074,-16879.887,-16900.525,-16902.576,-16902.633,-16861.822,-16834.758,-16811.326,-16781.336
-16802.68,-16838.217,-16824.432,-16828.787,-16872.646,-16882.365,-16876.613,-16858.223,-16828.232,-16830.912,-16839.004,-16828.885,-16814.734,-16795.29,-16773.355,-16774.496,-16791.807,-16825.408,-16862.53,-16846.4,-16836.988,-16873.47,-16920.438,-16974.275,-16975.645
-16923.766,-16891.271,-16918.367,-16944.256,-16883.18,-16808.191,-16764.18,-16727.904,-16742.729,-16790.754,-16783.588,-16774.31,-16854.62,-16899.834,-16869.55,-16877.547,-16874.945,-16830.834,-16820.488,-16825.645,-16821.412,-16837.045,-16851.266,-16847.764,-16840.73
-16831.05,-16815.19,-16787.146,-16777.504,-16812.773,-16873.229,-16911.707,-16902.463,-16876.344,-16837.355,-16810.695,-16837.643,-16855.764,-16844.246,-16853.701,-16856.438,-16831.766,-16815.668,-16815.018,-16826.887,-16842.938,-16835.082,-16821.676,-16842.764,-16870.303
-16900.334,-16956.791,-16955.7,-16876.123,-16822.725,-16827.223,-16826.738,-16790.021,-16803.838,-16860.604,-16893.748,-16955.246,-16965.316,-16888.586,-16889.72,-16956.824,-16952.21,-16884.74,-16823.828,-16780.686,-16783.887,-16815.81,-16808.422,-16790.395,-16789.99
-16802.234,-16812.666,-16790.643,-16776.818,-16799.445,-16838.588,-16879.812,-16891.447,-16877.562,-16846.104,-16813.639,-16809.418,-16797.607,-16801.922,-16830.527,-16821.111,-16820.547,-16850.148,-16862.852,-16863.477,-16862.79,-16860.275,-16866.352,-16901.09,-16919.38
-16877.88,-16856.541,-16883.941,-16888.28,-16859.244,-16823.908,-16798.82,-16809.787,-16838.186,-16873.441,-16914.625,-16885.152,-16846.205,-16877.21,-16886.432,-16878.82,-16859.127,-16822.43,-16796.908,-16760.559,-16783.713,-16840.0,-16867.916,-16877.783,-16862.441
-16871.498,-16842.414,-16782.19,-16774.047,-16764.426,-16780.223,-16834.111,-16887.49,-16922.205,-16912.215,-16898.742,-16886.164,-16855.389,-16838.979,-16825.912,-16813.168,-16821.092,-16816.621,-16812.398,-16820.041,-16820.04,-16846.697,-16875.738,-16886.639,-16890.102
-16877.049,-16863.191,-16834.72,-16821.973,-16850.477,-16886.662,-16890.125,-16834.72,-16817.559,-16848.39,-16845.855,-16843.72,-16838.441,-16830.223,-16840.312,-16848.357,-16841.535,-16823.074,-16827.63,-16839.97,-16866.26,-16912.848,-16930.826,-16954.291,-16974.115
-16926.535,-16850.56,-16825.95,-16841.314,-16852.275,-16846.754,-16807.22,-16792.754,-16809.785,-16826.342,-16848.404,-16821.41,-16815.105,-16845.012,-16830.812,-16813.602,-16804.94,-16814.553,-16820.258,-16814.525,-16811.516,-16802.53,-16860.37,-16926.436,-16923.898
-16900.525,-16891.584,-16883.824,-16868.838,-16909.375,-16918.299,-16874.848,-16882.404,-16882.53,-16893.014,-16897.52,-16847.254,-16827.035,-16851.447,-16872.09,-16842.742,-16808.176,-16816.033,-16825.28,-16840.914,-16860.688,-16872.531,-16855.57,-16799.43,-16794.941
-16854.076,-16872.373,-16847.361,-16840.74,-16848.701,-16883.89,-16952.414,-16996.305,-17002.887,-16959.713,-16876.824,-16796.646,-16739.922,-16773.812,-16815.586,-16800.297,-16815.271,-16819.654,-16836.95,-16883.854,-16900.502,-16892.713,-16849.086,-16831.482,-16841.83
-16852.44,-16865.242,-16832.318,-16826.02,-16878.916,-16922.307,-16941.426,-16967.84,-16979.521,-16925.24,-16884.895,-16895.787,-16904.549,-16875.158,-16813.422,-16817.072,-16854.555,-16837.492,-16832.062,-16848.143,-16853.74,-16869.562,-16911.475,-16950.904,-16886.15
-16795.357,-16796.26,-16787.756,-16798.277,-16886.814,-16945.486,-16916.717,-16874.42,-16902.807,-16895.28,-16830.627,-16826.066,-16814.592,-16784.922,-16796.473,-16802.568,-16816.238,-16854.379,-16857.918,-16852.975,-16895.72,-16938.658,-16945.652,-16923.713,-16878.578
-16832.95,-16824.654,-16875.361,-16921.389,-16910.062,-16875.213,-16831.973,-16819.074,-16862.38,-16870.238,-16830.564,-16831.236,-16850.03,-16840.445,-16837.412,-16849.668,-16882.475,-16939.248,-16930.781,-16867.166,-16867.537,-16903.377,-16887.52,-16866.057,-16897.232
-16904.479,-16882.24,-16888.215,-16892.432,-16924.357,-16937.967,-16900.367,-16910.078,-16874.322,-16792.975,-16787.64,-16780.793,-16776.732,-16782.332,-16777.701,-16832.191,-16882.164,-16900.18,-16901.424,-16877.23,-16873.549,-16858.818,-16865.719,-16919.143,-16945.775
-16927.205,-16867.438,-16824.549,-16790.59,-16760.834,-16790.008,-16808.705,-16810.338,-16825.541,-16833.658,-16837.91,-16827.111,-16838.385,-16883.102,-16913.834,-16921.773,-16939.533,-16976.709,-16980.174,-16945.537,-16898.271,-16847.219,-16826.498,-16829.17,-16848.238
-16883.824,-16895.584,-16895.5,-16892.334,-16858.084,-16842.152,-16864.572,-16855.07,-16818.553,-16808.666,-16811.389,-16806.818,-16799.41,-16800.822,-16825.154,-16837.707,-16834.338,-16848.457,-16841.564,-16828.615,-16835.047,-16813.133,-16810.027,-16836.977,-16854.088
-16913.236,-17003.123,-17051.12,-17005.27,-16928.006,-16885.8,-16816.54,-16792.81,-16815.531,-16788.88,-16798.72,-16822.545,-16814.096,-16824.74,-16831.264,-16829.469,-16837.58,-16846.408,-16834.852,-16819.21,-16847.293,-16875.387,-16860.895,-16868.47,-16891.26
-16883.994,-16895.418,-16924.85,-16912.338,-16858.607,-16811.951,-16801.871,-16827.262,-16843.652,-16837.752,-16858.102,-16872.242,-16857.898,-16849.943,-16862.807,-16888.094,-16900.605,-16937.48,-16953.242,-16902.295,-16872.38,-16832.992,-16794.355,-16821.637,-16831.496
-16821.596,-16833.055,-16840.752,-16853.523,-16866.44,-16861.072,-16847.78,-16837.549,-16829.736,-16856.695,-16894.885,-16865.355,-16836.465,-16866.771,-16895.707,-16909.375,-16936.695,-16938.68,-16852.324,-16816.328,-16875.725,-16863.05,-16844.066,-16855.174,-16831.273
-16835.34,-16845.941,-16854.303,-16859.404,-16844.268,-16854.271,-16844.738,-16822.938,-16820.217,-16802.225,-16806.922,-16824.803,-16824.703,-16835.121,-16865.176,-16892.764,-16893.094,-16894.354,-16889.998,-16866.008,-16874.27,-16884.36,-16874.428,-16878.023,-16856.29
-16821.709,-16814.22,-16800.959,-16778.621,-16762.77,-16791.707,-16879.92,-16934.3,-16935.287,-16957.602,-17002.086,-16996.318,-16914.746,-16838.953,-16804.17,-16775.615,-16780.219,-16813.336,-16824.166,-16821.238,-16811.256,-16811.709,-16834.637,-16824.314,-16801.865
-16810.445,-16806.291,-16797.62,-16806.555,-16803.488,-16804.646,-16849.902,-16911.309,-16924.732,-16890.627,-16870.506,-16896.238,-16910.8,-16886.977,-16889.252,-16879.86,-16830.422,-16799.922,-16771.37,-16765.047,-16787.541,-16822.088,-16865.84,-16859.816,-16861.502
-16890.932,-16887.377,-16892.008,-16898.28,-16869.525,-16829.525,-16846.379,-16881.604,-16855.479,-16865.312,-16875.959,-16818.545,-16830.557,-16868.096,-16842.957,-16851.1,-16882.107,-16854.344,-16809.932,-16813.105,-16817.896,-16798.26,-16807.514,-16829.682,-16839.076
-16847.947,-16859.719,-16865.086,-16839.605,-16818.154,-16815.76,-16804.357,-16808.062,-16810.443,-16800.836,-16843.3,-16888.97,-16849.922,-16838.738,-16894.5,-16890.395,-16872.82,-16873.61,-16823.812,-16794.76,-16824.16,-16862.977,-16883.703,-16861.117,-16827.639
-16818.943,-16823.607,-16848.307,-16884.803,-16899.23,-16899.596,-16897.066,-16864.752,-16815.885,-16803.74,-16830.893,-16857.969,-16872.254,-16875.816,-16862.936,-16854.857,-16872.207,-16890.234,-16898.883,-16907.158,-16891.658,-16871.73,-16862.428,-16824.467,-16796.121
-16799.176,-16817.1,-16842.426,-16832.715,-16828.707,-16840.549,-16849.213,-16862.408,-16835.715,-16819.076,-16820.164,-16825.666,-16855.459,-16842.139,-16839.135,-16864.23,-16854.258,-16844.49,-16819.738,-16785.703,-16791.766,-16812.53,-16822.723,-16842.146,-16878.422
-16915.51,-16918.518,-16858.488,-16798.713,-16810.879,-16861.86,-16869.613,-16860.834,-16923.693,-16961.633,-16913.496,-16884.473,-16868.646,-16872.123,-16951.264,-16957.043,-16870.318,-16874.734,-16859.322,-16809.37,-16854.074,-16866.979,-16858.027,-16840.006,-16784.348
-16794.895,-16846.355,-16879.123,-16864.018,-16822.15,-16789.047,-16789.76,-16829.584,-16849.816,-16871.09,-16882.105,-16889.195,-16914.855,-16895.72,-16846.756,-16832.5,-16869.781,-16852.174,-16803.688,-16824.975,-16819.977,-16815.734,-16830.785,-16808.008,-16805.43
-16799.105,-16783.455,-16787.28,-16787.008,-16791.115,-16795.188,-16800.252,-16804.623,-16811.674,-16840.0,-16851.434,-16843.883,-16855.107,-16867.293,-16872.666,-16882.008,-16905.287,-16959.314,-16983.629,-16934.879,-16893.338,-16870.438,-16838.348,-16851.494,-16887.879
-16879.217,-16836.727,-16815.178,-16834.031,-16858.648,-16872.365,-16868.898,-16861.283,-16866.156,-16853.363,-16813.232,-16779.318,-16821.246,-16894.703,-16890.566,-16875.58,-16844.691,-16777.637,-16780.828,-16799.44,-16805.738,-16828.799,-16841.262,-16877.084,-16898.643
-16898.955,-16911.613,-16906.678,-16907.807,-16903.912,-16868.799,-16827.902,-16798.621,-16795.244,-16805.38,-16822.863,-16840.219,-16831.5,-16823.88,-16837.92,-16848.582,-16841.62,-16826.604,-16832.404,-16859.787,-16885.254,-16886.639,-16864.953,-16853.111,-16850.78
-16848.307,-16831.6,-16811.656,-16839.982,-16866.092,-16846.514,-16838.06,-16853.482,-16893.727,-16936.217,-16921.453,-16879.502,-16873.145,-16900.406,-16902.107,-16856.338,-16783.137,-16726.115,-16772.771,-16835.033,-16827.855,-16839.436,-16845.787,-16832.355,-16836.14
-16834.627,-16847.615,-16901.885,-16931.215,-16892.467,-16849.508,-16784.08,-16742.035,-16793.701,-16834.105,-16871.4,-16896.256,-16846.965,-16813.379,-16837.926,-16877.459,-16891.105,-16892.723,-16895.057,-16876.803,-16833.914,-16785.924,-16797.143,-16820.027,-16791.012
-16786.648,-16806.805,-16803.938,-16795.38,-16798.63,-16807.22,-16798.408,-16792.45,-16817.826,-16851.104,-16869.543,-16883.688,-16908.738,-16908.188,-16879.38,-16888.48,-16918.895,-16929.438,-16927.41,-16887.426,-16827.31,-16831.125,-16856.312,-16830.287,-16827.158
-16845.041,-16845.506,-16874.814,-16881.443,-16836.078,-16816.771,-16819.223,-16815.383,-16850.785,-16903.162,-16939.42,-16959.133,-16903.652,-16810.953,-16756.576,-16767.87,-16832.748,-16857.55,-16847.723,-16843.402,-16836.818,-16837.098,-16824.436,-16808.012,-16802.164
-16798.998,-16807.191,-16834.402,-16868.705,-16874.338,-16842.37,-16818.63,-16835.16,-16864.307,-16902.361,-16935.85,-16912.816,-16865.744,-16848.678,-16839.725,-16806.605,-16787.605,-16828.326,-16881.594,-16878.443,-16851.873,-16839.066,-16796.645,-16769.094,-16779.412
-16790.477,-16833.723,-16865.111,-16861.266,-16839.256,-16802.43,-16800.438,-16818.309,-16824.223,-16820.488,-16825.197,-16837.768,-16849.594,-16871.508,-16887.549,-16899.438,-16884.412,-16844.37,-16825.023,-16855.855,-16921.176,-16930.559,-16908.432,-16877.096,-16817.193
-16790.459,-16787.594,-16815.004,-16837.447,-16826.627,-16836.941,-16830.727,-16829.258,-16836.16,-16819.348,-16811.754,-16809.814,-16829.33,-16850.69,-16850.344,-16831.688,-16825.709,-16846.555,-16814.916,-16803.586,-16839.521,-16817.049,-16813.734,-16829.965,-16815.297
-16852.748,-16907.361,-16942.87,-16971.473,-16916.627,-16828.031,-16800.266,-16794.236,-16792.977,-16783.834,-16758.059,-16766.613,-16791.723,-16795.148,-16810.496,-16849.57,-16899.797,-16920.686,-16879.166,-16828.91,-16801.004,-16810.084,-16835.525,-16824.135,-16817.533
-16821.957,-16827.684,-16837.932,-16832.018,-16827.508,-16798.81,-16777.217,-16805.836,-16846.707,-16879.293,-16880.81,-16883.44,-16905.162,-16910.922,-16892.666,-16877.223,-16853.914,-16791.002,-16784.252,-16813.658,-16804.85,-16814.207,-16812.57,-16804.527,-16799.098
-16785.002,-16800.393,-16807.562,-16811.303,-16826.91,-16828.135,-16832.242,-16845.459,-16853.729,-16849.092,-16813.785,-16791.1,-16844.336,-16846.455,-16802.277,-16859.545,-16901.635,-16899.262,-16890.398,-16855.246,-16849.664,-16809.742,-16778.703,-16800.344,-16797.822
-16812.154,-16816.256,-16819.951,-16839.393,-16823.598,-16817.957,-16816.498,-16840.701,-16889.951,-16902.314,-16914.305,-16902.238,-16846.676,-16789.844,-16796.938,-16868.637,-16828.873,-16760.732,-16814.648,-16841.596,-16849.225,-16868.447,-16848.11,-16838.334,-16835.264
-16842.463,-16836.11,-16806.273,-16788.03,-16780.273,-16833.146,-16904.916,-16923.703,-16907.697,-16872.217,-16875.27,-16925.484,-16918.074,-16824.756,-16788.205,-16847.219,-16873.297,-16856.0,-16828.225,-16800.107,-16796.49,-16821.428,-16863.598,-16842.365,-16790.98
-16793.865,-16798.518,-16809.87,-16818.043,-16787.861,-16780.125,-16799.861,-16810.795,-16821.61,-16828.547,-16822.383,-16820.744,-16825.453,-16828.844,-16831.936,-16842.55,-16871.443,-16885.156,-16886.273,-16920.176,-16935.95,-16895.04,-16834.807,-16775.523,-16769.012
-16791.646,-16779.975,-16793.004,-16818.39,-16837.514,-16866.365,-16862.719,-16886.096,-16916.273,-16891.168,-16878.857,-16837.953,-16781.744,-16794.008,-16789.828,-16784.295,-16835.16,-16863.797,-16882.13,-16885.795,-16818.104,-16788.398,-16848.082,-16868.146,-16856.107
-16877.41,-16875.486,-16863.748,-16858.248,-16835.938,-16818.523,-16815.74,-16834.967,-16845.053,-16854.54,-16871.607,-16849.658,-16829.867,-16825.508,-16800.611,-16784.865,-16811.658,-16841.71,-16842.713,-16842.832,-16832.037,-16817.484,-16831.443,-16858.986,-16867.744
-16855.178,-16875.98,-16920.412,-16928.633,-16929.947,-16928.764,-16858.736,-16781.162,-16772.014,-16767.701,-16777.996,-16822.043,-16853.078,-16865.715,-16848.53,-16839.1,-16856.004,-16859.8,-16874.826,-16890.184,-16875.11,-16846.736,-16786.264,-16764.082,-16807.387
-16798.676,-16826.99,-16889.047,-16884.744,-16914.307,-16892.408,-16838.998,-16854.982,-16847.342,-16866.527,-16880.938,-16871.846,-16893.854,-16879.809,-16860.297,-16846.592,-16819.203,-16795.445,-16789.736,-16796.748,-16779.162,-16781.965,-16798.396,-16802.668,-16837.785
-16865.307,-16853.191,-16834.717,-16819.404,-16798.459,-16791.553,-16800.291,-16810.16,-16819.178,-16807.953,-16815.38,-16836.422,-16814.832,-16814.266,-16852.393,-16873.322,-16867.125,-16844.168,-16820.121,-16804.766,-16829.092,-16871.855,-16884.912,-16883.723,-16871.137
-16844.145,-16823.074,-16809.191,-16785.87,-16784.172,-16806.068,-16803.783,-16796.512,-16815.795,-16857.428,-16844.033,-16798.12,-16849.143,-16920.12,-16937.477,-16940.156,-16898.049,-16819.041,-16800.826,-16830.834,-16805.389,-16799.469,-16833.78,-16815.996,-16800.078
-16804.916,-16822.324,-16871.205,-16913.635,-16912.154,-16873.902,-16845.318,-16832.846,-16834.223,-16817.56,-16760.57,-16749.006,-16790.158,-16834.473,-16884.523,-16939.184,-16982.05,-16953.238,-16876.338,-16827.951,-16774.934,-16749.19,-16799.293,-16821.96,-16787.965
-16762.379,-16755.016,-16773.238,-16789.506,-16785.004,-16795.416,-16815.404,-16824.334,-16814.121,-16819.076,-16833.535,-16816.322,-16807.807,-16799.604,-16790.922,-16796.455,-16784.756,-16781.56,-16800.164,-16837.229,-16850.494,-16813.805,-16791.033,-16799.94,-16813.021
-16803.361,-16816.186,-16858.016,-16845.887,-16819.785,-16804.98,-16807.096,-16844.713,-16842.064,-16830.66,-16839.11,-16832.82,-16818.81,-16782.629,-16812.254,-16884.229,-16884.312,-16921.045,-16979.434,-16915.822,-16814.832,-16782.473,-16778.607,-16785.83,-16794.484
-16770.998,-16753.1,-16766.57,-16792.066,-16815.088,-16810.982,-16786.152,-16774.316,-16782.146,-16790.78,-16796.318,-16822.262,-16842.127,-16825.191,-16826.336,-16839.94,-16833.488,-16835.256,-16839.191,-16843.43,-16835.594,-16823.523,-16825.88,-16810.746,-16804.873
-16809.242,-16804.928,-16822.42,-16832.625,-16804.432,-16778.89,-16796.967,-16826.654,-16835.033,-16820.176,-16804.74,-16808.855,-16800.662,-16792.916,-16792.85,-16825.441,-16899.836,-16925.877,-16898.56,-16843.605,-16797.688,-16784.848,-16764.043,-16750.605,-16777.201
-16825.232,-16830.504,-16811.44,-16793.045,-16777.658,-16803.121,-16842.156,-16903.598,-16931.172,-16898.36,-16852.139,-16779.027,-16780.912,-16812.66,-16790.781,-16788.605,-16780.742,-16780.63,-16796.91,-16812.988,-16831.965,-16819.568,-16812.094,-16807.383,-16794.656
-16804.205,-16821.264,-16858.482,-16857.44,-16791.0,-16792.809,-16824.215,-16805.61,-16816.611,-16813.402,-16775.932,-16777.434,-16802.69,-16843.375,-16867.104,-16854.686,-16857.008,-16856.014,-16810.355,-16765.568,-16767.707,-16782.053,-16784.414,-16779.111,-16774.94
-16794.635,-16805.984,-16802.521,-16820.578,-16828.441,-16818.053,-16814.814,-16825.756,-16850.586,-16853.502,-16843.158,-16838.338,-16815.96,-16813.309,-16835.244,-16824.945,-16801.086,-16793.244,-16791.27,-16800.2,-16810.785,-16835.68,-16874.387,-16871.264,-16851.3
-16825.104,-16788.89,-16795.406,-16800.133,-16784.512,-16776.639,-16777.861,-16809.219,-16818.488,-16787.314,-16786.17,-16828.25,-16851.627,-16828.682,-16812.861,-16810.197,-16797.002,-16801.113,-16825.22,-16826.113,-16806.535,-16804.734,-16802.533,-16804.424,-16832.035
-16873.756,-16916.367,-16905.783,-16854.887,-16823.955,-16834.275,-16870.139,-16847.074,-16792.447,-16771.54,-16772.271,-16818.441,-16858.102,-16847.37,-16828.34,-16786.752,-16741.1,-16752.336,-16785.533,-16797.312,-16804.475,-16807.527,-16813.967,-16817.637,-16815.209
-16822.154,-16803.496,-16799.86,-16829.814,-16815.957,-16810.146,-16828.17,-16805.3,-16789.02,-16804.084,-16813.848,-16809.79,-16806.889,-16808.924,-16811.773,-16830.938,-16849.58,-16846.773,-16820.979,-16771.398,-16761.979,-16831.889,-16898.318,-16896.188,-16875.826
-16871.777,-16842.025,-16809.854,-16816.84,-16811.574,-16784.53,-16788.82,-16809.66,-16815.023,-16827.08,-16843.092,-16843.674,-16844.736,-16840.215,-16820.553,-16803.252,-16787.385,-16787.076,-16818.414,-16846.78,-16868.809,-16867.16,-16822.51,-16828.01,-16860.28
-16828.01,-16798.041,-16800.691,-16801.445,-16790.91,-16788.145,-16808.139,-16807.873,-16810.219,-16837.783,-16821.717,-16782.033,-16792.342,-16807.63,-16794.45,-16817.562,-16840.59,-16820.553,-16819.086,-16848.31,-16864.691,-16831.477,-16810.18,-16823.012,-16822.059
-16827.527,-16814.098,-16812.33,-16835.574,-16820.39,-16793.262,-16770.107,-16776.066,-16793.414,-16794.705,-16792.102,-16777.535,-16808.705,-16832.584,-16824.662,-16848.373,-16844.232,-16827.992,-16813.73,-16810.77,-16850.832,-16851.527,-16814.55,-16804.66,-16820.928
-16816.836,-16793.62,-16788.55,-16772.182,-16769.686,-16780.773,-16779.969,-16807.338,-16826.328,-16822.463,-16827.207,-16841.5,-16861.186,-16872.883,-16890.178,-16901.79,-16884.035,-16869.652,-16880.871,-16885.014,-16880.203,-16858.604,-16797.443,-16791.33,-16834.504
-16833.861,-16818.994,-16806.828,-16811.695,-16814.479,-16793.045,-16782.373,-16786.668,-16811.049,-16817.225,-16805.633,-16815.24,-16821.67,-16817.81,-16810.236,-16820.31,-16835.775,-16829.834,-16834.4,-16850.893,-16846.076,-16828.41,-16832.236,-16861.094,-16890.21
-16884.732,-16855.758,-16833.883,-16808.29,-16809.36,-16839.703,-16829.156,-16804.643,-16821.814,-16836.951,-16833.76,-16821.023,-16809.219,-16839.408,-16875.441,-16864.61,-16834.045,-16838.205,-16848.67,-16824.785,-16836.889,-16865.498,-16845.219,-16834.441,-16855.303
-16864.02,-16856.848,-16852.512,-16842.559,-16821.406,-16802.549,-16800.826,-16821.014,-16839.213,-16836.012,-16824.45,-16821.299,-16825.547,-16835.412,-16848.23,-16854.557,-16847.23,-16833.693,-16817.73,-16786.441,-16774.988,-16793.842,-16808.016,-16837.56,-16864.654
-16865.227,-16851.307,-16812.035,-16775.352,-16770.828,-16805.068,-16841.86,-16843.373,-16848.748,-16853.678,-16845.088,-16843.92,-16842.145,-16848.629,-16871.36,-16893.062,-16883.895,-16839.95,-16801.518,-16793.586,-16808.768,-16830.824,-16846.105,-16855.268,-16864.22
-16859.016,-16844.826,-16834.39,-16826.508,-16830.084,-16823.291,-16814.701,-16815.883,-16796.54,-16797.852,-16828.023,-16844.861,-16865.238,-16904.275,-16942.14,-16929.74,-16893.104,-16866.61,-16814.691,-16794.332,-16799.06,-16799.723,-16845.354,-16873.332,-16882.627
-16873.098,-16826.629,-16817.91,-16812.326,-16802.047,-16799.27,-16794.996,-16819.56,-16833.133,-16845.691,-16873.238,-16882.87,-16870.756,-16853.186,-16842.807,-16836.22,-16861.766,-16874.84,-16850.426,-16862.469,-16872.63,-16857.855,-16860.25,-16848.455,-16822.955
-16810.6,-16811.3,-16817.443,-16815.295,-16825.488,-16836.783,-16826.271,-16813.121,-16810.309,-16845.541,-16892.482,-16899.576,-16866.143,-16842.887,-16873.027,-16886.287,-16876.838,-16860.76,-16823.082,-16816.918,-16798.266,-16785.723,-16803.83,-16787.244,-16791.645
-16808.564,-16844.691,-16915.969,-16914.484,-16870.758,-16844.361,-16812.84,-16782.885,-16786.275,-16825.463,-16836.834,-16831.295,-16837.469,-16827.295,-16847.299,-16886.674,-16863.15,-16821.355,-16813.934,-16806.854,-16812.033,-16835.207,-16839.861,-16839.377,-16858.863
-16895.725,-16897.668,-16856.332,-16827.137,-16801.346,-16813.87,-16859.363,-16843.133,-16816.117,-16814.0,-16792.064,-16806.998,-16849.512,-16847.338,-16845.076,-16839.145,-16814.613,-16813.799,-16799.285,-16795.275,-16818.752,-16822.285,-16827.822,-16838.404,-16851.246
-16842.86,-16827.04,-16838.684,-16829.887,-16818.58,-16813.867,-16810.531,-16820.168,-16818.174,-16852.465,-16894.922,-16863.287,-16821.398,-16822.395,-16811.744,-16794.934,-16789.775,-16764.982,-16792.254,-16832.064,-16813.021,-16845.096,-16889.812,-16873.107,-16844.885
-16823.541,-16812.145,-16804.148,-16792.148,-16778.33,-16778.572,-16782.074,-16785.076,-16806.795,-16819.576,-16821.932,-16829.887,-16828.754,-16804.598,-16789.953,-16797.535,-16808.256,-16857.385,-16896.076,-16879.16,-16863.234,-16853.156,-16831.773,-16800.68,-16789.484
-16808.768,-16832.469,-16838.133,-16825.479,-16819.9,-16805.25,-16784.68,-16780.205,-16796.984,-16837.6,-16872.793,-16883.828,-16862.799,-16849.096,-16877.52,-16900.723,-16888.092,-16848.328,-16801.725,-16789.988,-16820.559,-16846.879,-16867.188,-16867.781,-16835.557
-16824.041,-16843.63,-16878.541,-16861.924,-16794.465,-16778.965,-16804.186,-16828.457,-16820.707,-16797.787,-16794.488,-16783.094,-16785.816,-16789.025,-16786.877,-16794.0,-16781.988,-16779.447,-16776.822,-16789.334,-16834.191,-16844.844,-16836.615,-16839.062,-16825.537
-16777.668,-16755.484,-16783.693,-16793.73,-16801.854,-16809.352,-16808.943,-16819.86,-16813.613,-16798.49,-16787.799,-16797.912,-16809.596,-16815.674,-16828.26,-16789.775,-16767.004,-16776.592,-16752.479,-16774.77,-16788.762,-16765.111,-16784.16,-16777.943,-16786.377
-16822.846,-16803.828,-16795.678,-16809.545,-16822.514,-16846.17,-16847.326,-16843.365,-16868.025,-16881.404,-16853.236,-16851.406,-16874.629,-16857.475,-16839.492,-16837.84,-16846.576,-16851.09,-16828.662,-16833.678,-16826.463,-16801.592,-16826.123,-16831.045,-16805.953
-16780.867,-16777.62,-16791.17,-16779.883,-16783.205,-16767.66,-16765.855,-16801.727,-16807.371,-16842.684,-16840.592,-16805.31,-16832.496,-16829.29,-16830.787,-16862.94,-16855.045,-16861.365,-16869.615,-16829.992,-16796.97,-16771.953,-16751.25,-16773.076,-16785.486
-16783.766,-16799.918,-16803.605,-16808.008,-16799.79,-16779.734,-16790.668,-16808.324,-16819.576,-16828.71,-16832.012,-16835.678,-16852.977,-16856.367,-16821.0,-16813.408,-16822.914,-16825.258,-16835.555,-16826.146,-16833.14,-16836.543,-16833.912,-16843.47,-16810.535
-16803.092,-16819.557,-16817.906,-16841.441,-16836.678,-16807.164,-16801.447,-16814.836,-16822.877,-16807.695,-16833.908,-16879.568,-16887.734,-16873.734,-16839.871,-16808.54,-16785.307,-16797.459,-16814.969,-16828.441,-16871.373,-16832.67,-16780.738,-16792.875,-16777.998
-16771.96,-16774.857,-16786.846,-16832.16,-16863.418,-16872.898,-16881.807,-16850.586,-16753.957,-16739.57,-16801.484,-16810.453,-16827.498,-16822.994,-16789.47,-16787.31,-16779.674,-16800.438,-16819.555,-16805.63,-16810.09,-16814.246,-16826.256,-16832.969,-16826.932
-16850.06,-16858.562,-16827.957,-16800.857,-16804.45,-16818.736,-16804.867,-16795.164,-16798.234,-16775.31,-16783.744,-16830.688,-16840.148,-16826.986,-16805.93,-16797.535,-16826.799,-16840.045,-16849.154,-16890.322,-16920.041,-16935.84,-16920.227,-16841.781,-16804.908
-16793.752,-16742.701,-16746.223,-16779.125,-16810.191,-16816.635,-16794.764,-16818.744,-16809.76,-16793.008,-16825.924,-16849.027,-16853.66,-16836.38,-16829.514,-16822.307,-16823.662,-16837.652,-16836.254,-16854.697,-16857.969,-16870.025,-16903.71,-16895.979,-16897.598
-16897.395,-16845.248,-16802.086,-16796.484,-16786.842,-16768.502,-16773.71,-16794.629,-16803.111,-16814.45,-16825.967,-16816.629,-16812.615,-16814.39,-16816.492,-16819.568,-16815.29,-16819.572,-16815.725,-16802.582,-16793.518,-16791.02,-16804.5,-16827.979,-16865.607
-16862.459,-16811.37,-16807.596,-16820.346,-16801.855,-16794.941,-16796.691,-16803.186,-16806.13,-16787.684,-16778.42,-16781.281,-16817.107,-16897.293,-16951.7,-16957.338,-16912.088,-16841.24,-16816.654,-16830.385,-16847.756,-16847.68,-16822.715,-16794.71,-16769.99
-16770.994,-16792.248,-16784.713,-16751.465,-16754.078,-16812.031,-16853.865,-16884.455,-16913.916,-16874.352,-16851.225,-16899.527,-16905.36,-16858.715,-16828.514,-16817.344,-16816.752,-16830.848,-16836.906,-16837.754,-16867.814,-16877.39,-16828.953,-16797.066,-16771.445
-16752.33,-16789.34,-16786.76,-16762.47,-16780.86,-16788.207,-16798.355,-16799.957,-16805.281,-16823.42,-16822.826,-16837.62,-16822.584,-16777.582,-16779.215,-16808.027,-16821.117,-16826.908,-16878.95,-16932.445,-16926.111,-16897.07,-16842.117,-16792.082,-16797.28
-16834.959,-16846.658,-16808.635,-16788.055,-16777.037,-16766.31,-16781.154,-16780.982,-16797.834,-16804.441,-16785.639,-16795.004,-16792.977,-16789.402,-16783.86,-16792.27,-16835.928,-16840.502,-16814.922,-16788.686,-16790.121,-16828.404,-16838.404,-16850.74,-16877.37
-16860.566,-16836.904,-16828.547,-16823.303,-16835.924,-16832.502,-16803.6,-16794.645,-16812.734,-16823.957,-16816.78,-16805.402,-16777.182,-16761.525,-16787.057,-16825.283,-16874.373,-16911.82,-16901.102,-16853.38,-16833.084,-16835.283,-16802.352,-16791.09,-16804.61
-16833.645,-16873.205,-16848.232,-16836.469,-16846.902,-16817.828,-16791.139,-16759.541,-16768.783,-16814.0,-16831.219,-16823.008,-16793.008,-16794.693,-16814.455,-16829.73,-16854.564,-16835.209,-16823.29,-16872.113,-16905.758,-16897.816,-16869.285,-16809.168,-16768.996
-16800.756,-16815.05,-16794.879,-16800.64,-16802.486,-16793.559,-16788.025,-16799.238,-16826.97,-16845.496,-16853.232,-16836.006,-16811.488,-16799.248,-16804.545,-16852.592,-16881.441,-16873.271,-16891.182,-16903.53,-16885.486,-16841.93,-16781.246,-16755.068,-16776.65
-16828.684,-16832.299,-16772.303,-16767.78,-16767.797,-16746.51,-16773.617,-16774.102,-16785.459,-16820.225,-16801.777,-16795.584,-16806.023,-16809.375,-16823.812,-16833.049,-16836.914,-16842.701,-16862.244,-16902.643,-16945.184,-16955.367,-16926.457,-16906.875,-16888.057
-16811.162,-16760.635,-16782.793,-16802.459,-16816.098,-16800.85,-16787.81,-16796.98,-16780.562,-16778.242,-16782.9,-16794.547,-16809.193,-16813.268,-16834.309,-16838.494,-16836.033,-16821.092,-16808.648,-16825.148,-16794.443,-16751.314,-16767.125,-16831.39,-16876.95
-16846.662,-16820.953,-16826.115,-16819.777,-16844.945,-16881.97,-16868.203,-16824.475,-16788.25,-16789.27,-16806.09,-16810.545,-16808.172,-16781.465,-16779.299,-16812.426,-16855.896,-16920.0,-16922.564,-16858.922,-16824.877,-16851.676,-16891.31,-16892.465,-16875.695
-16870.354,-16845.535,-16760.525,-16721.498,-16748.62,-16750.479,-16775.814,-16812.791,-16854.957,-16854.248,-16779.883,-16780.732,-16803.49,-16801.025,-16821.19,-16804.697,-16799.625,-16815.387,-16807.299,-16804.94,-16802.691,-16805.154,-16809.85,-16809.012,-16825.285
-16834.832,-16824.344,-16799.22,-16776.766,-16785.725,-16800.607,-16831.166,-16850.242,-16833.828,-16844.326,-16858.396,-16880.752,-16870.393,-16790.006,-16781.287,-16809.162,-16788.863,-16783.072,-16789.299,-16790.824,-16789.184,-16770.314,-16752.52,-16768.672,-16797.408
-16813.615,-16822.834,-16821.412,-16796.992,-16769.553,-16795.9,-16816.672,-16793.04,-16797.752,-16821.986,-16851.88,-16862.9,-16838.607,-16851.574,-16903.645,-16919.512,-16881.236,-16801.74,-16733.133,-16745.105,-16759.008,-16750.4,-16763.63,-16772.24,-16811.645
-16812.469,-16775.828,-16775.324,-16753.746,-16776.576,-16828.678,-16843.525,-16849.041,-16846.654,-16862.771,-16850.084,-16843.299,-16865.363,-16824.984,-16785.926,-16756.24,-16720.021,-16734.281,-16768.54,-16820.549,-16858.57,-16835.416,-16807.738,-16812.318,-16821.615
-16809.758,-16790.412,-16783.764,-16787.76,-16788.48,-16784.969,-16774.004,-16753.01,-16754.059,-16763.639,-16755.715,-16759.287,-16787.748,-16826.322,-16856.271,-16868.664,-16853.715,-16824.111,-16813.232,-16785.781,-16735.031,-16734.453,-16761.217,-16763.357,-16758.742
-16753.322,-16770.387,-16807.404,-16804.525,-16779.416,-16789.027,-16815.941,-16832.305,-16832.969,-16823.977,-16825.34,-16802.893,-16752.639,-16734.6,-16729.654,-16749.7,-16819.44,-16852.688,-16848.842,-16860.164,-16877.787,-16879.016,-16819.074,-16749.729,-16755.957
-16792.973,-16790.18,-16769.914,-16788.117,-16796.92,-16773.076,-16771.174,-16782.35,-16816.178,-16849.842,-16840.852,-16833.217,-16818.277,-16793.066,-16797.002,-16849.217,-16922.242,-16932.762,-16903.74,-16824.521,-16720.43,-16746.062,-16783.154,-16767.684,-16798.348
-16792.545,-16781.807,-16790.578,-16768.146,-16776.547,-16777.174,-16761.16,-16779.785,-16795.87,-16821.057,-16836.443,-16812.39,-16813.447,-16831.527,-16837.219,-16829.12,-16814.752,-16837.822,-16835.393,-16803.37,-16814.498,-16806.432,-16773.06,-16764.81,-16776.16
-16784.54,-16775.678,-16763.045,-16757.83,-16779.012,-16783.771,-16750.219,-16750.477,-16773.824,-16790.072,-16820.982,-16850.986,-16862.824,-16859.396,-16842.244,-16821.918,-16796.816,-16783.047,-16799.74,-16814.236,-16803.541,-16797.55,-16838.14,-16889.02,-16890.848
-16832.822,-16771.496,-16777.564,-16776.92,-16751.55,-16766.84,-16776.793,-16773.719,-16787.95,-16799.549,-16803.35,-16801.633,-16776.684,-16754.71,-16752.795,-16757.527,-16776.725,-16773.201,-16763.102,-16774.086,-16787.707,-16831.668,-16877.918,-16884.451,-16841.152
-16786.312,-16783.79,-16803.164,-16828.006,-16852.766,-16838.326,-16803.107,-16795.928,-16812.014,-16812.508,-16817.455,-16872.752,-16928.229,-16877.354,-16776.28,-16727.371,-16722.984,-16749.275,-16745.018,-16724.523,-16736.46,-16760.291,-16793.81,-16797.514,-16802.895
-16817.73,-16798.387,-16783.414,-16784.357,-16795.947,-16770.262,-16718.43,-16723.541,-16763.156,-16794.766,-16824.281,-16865.332,-16886.895,-16866.404,-16832.49,-16807.39,-16789.338,-16777.883,-16787.86,-16805.588,-16814.54,-16808.594,-16801.803,-16784.775,-16759.959
-16789.596,-16806.516,-16773.658,-16750.148,-16742.797,-16774.38,-16794.574,-16787.553,-16798.277,-16814.871,-16840.191,-16848.209,-16854.953,-16875.627,-16862.697,-16838.92,-16818.281,-16781.535,-16763.342,-16785.104,-16794.871,-16774.746,-16767.408,-16767.973,-16761.38
-16773.99,-16807.377,-16831.61,-16855.86,-16860.96,-16805.145,-16741.42,-16710.268,-16718.648,-16758.191,-16789.318,-16805.979,-16801.762,-16810.162,-16811.207,-16776.648,-16785.865,-16806.75,-16801.54,-16779.441,-16762.264,-16780.42,-16767.941,-16757.178,-16758.855
-16753.986,-16775.076,-16770.846,-16788.477,-16803.242,-16768.408,-16779.693,-16797.496,-16791.941,-16786.545,-16771.486,-16787.584,-16803.521,-16780.129,-16780.1,-16814.436,-16867.764,-16923.592,-16917.254,-16887.805,-16863.908,-16814.654,-16797.32,-16792.936,-16758.053
-16732.34,-16730.84,-16766.02,-16799.143,-16791.012,-16777.363,-16770.982,-16773.852,-16754.059,-16714.123,-16718.412,-16736.533,-16729.389,-16715.512,-16704.791,-16699.2,-16724.143,-16777.121,-16806.846,-16823.686,-16834.156,-16817.656,-16789.275,-16789.064,-16822.77
-16815.309,-16802.941,-16823.377,-16804.488,-16799.969,-16805.947,-16756.246,-16717.367,-16708.895,-16720.01,-16746.527,-16772.89,-16805.639,-16801.445,-16760.328,-16718.844,-16688.928,-16691.25,-16719.633,-16772.023,-16801.941,-16784.887,-16759.664,-16745.99,-16790.814
-16836.826,-16833.174,-16841.768,-16843.027,-16815.799,-16766.053,-16737.963,-16744.723,-16741.973,-16754.854,-16745.334,-16736.99,-16776.89,-16788.377,-16787.861,-16786.902,-16774.32,-16762.354,-16736.828,-16736.637,-16783.822,-16862.422,-16908.496,-16855.588,-16747.426
-16705.885,-16749.943,-16748.37,-16721.84,-16725.402,-16721.62,-16747.018,-16761.04,-16758.068,-16778.73,-16784.496,-16771.54,-16740.328,-16722.883,-16719.39,-16727.514,-16775.01,-16809.232,-16824.523,-16832.61,-16817.488,-16811.129,-16805.234,-16768.285,-16762.123
-16780.738,-16750.598,-16735.613,-16735.344,-16726.11,-16743.037,-16733.408,-16713.299,-16705.645,-16693.955,-16691.21,-16690.648,-16714.082,-16768.15,-16813.486,-16788.846,-16730.926,-16729.77,-16749.53,-16768.332,-16804.488,-16829.771,-16826.236,-16812.46,-16807.092
-16813.346,-16803.436,-16757.643,-16747.316,-16774.164,-16786.26,-16779.283,-16742.023,-16756.88,-16797.814,-16761.96,-16755.312,-16784.498,-16768.32,-16779.037,-16801.781,-16774.19,-16747.916,-16733.984,-16729.535,-16743.805,-16743.322,-16739.217,-16737.96,-16735.402
-16740.582,-16727.709,-16713.164,-16714.992,-16727.176,-16749.842,-16750.916,-16741.57,-16749.006,-16756.625,-16746.615,-16749.252,-16805.043,-16821.596,-16779.438,-16777.28,-16772.158,-16747.385,-16739.73,-16737.639,-16724.08,-16703.533,-16733.523,-16772.637,-16768.408
-16749.568,-16736.621,-16747.52,-16760.973,-16786.113,-16791.082,-16757.992,-16762.736,-16770.947,-16769.254,-16780.791,-16786.885,-16808.979,-16803.186,-16769.598,-16766.68,-16756.79,-16728.756,-16707.387,-16692.613,-16702.303,-16731.125,-16735.568,-16727.37,-16745.219
-16768.732,-16779.055,-16766.77,-16739.621,-16736.348,-16758.377,-16764.936,-16732.09,-16711.76,-16722.049,-16728.176,-16738.494,-16734.37,-16720.17,-16720.844,-16726.201,-16747.373,-16763.54,-16756.127,-16743.76,-16736.215,-16741.176,-16750.8,-16764.627,-16768.805
-16755.13,-16767.74,-16786.29,-16766.955,-16738.242,-16708.1,-16711.262,-16767.627,-16798.027,-16806.893,-16831.242,-16842.635,-16814.05,-16754.057,-16733.588,-16728.705,-16723.902,-16782.031,-16811.945,-16784.402,-16768.982,-16739.361,-16718.705,-16741.598,-16771.947
-16792.824,-16802.434,-16777.297,-16726.605,-16707.06,-16700.69,-16691.117,-16711.777,-16722.355,-16729.63,-16743.059,-16720.436,-16707.908,-16733.969,-16766.518,-16759.162,-16726.844,-16736.387,-16761.191,-16756.074,-16718.498,-16698.732,-16727.793,-16742.559,-16736.627
