0.0,8559.462,18441.666,-7228.675,-30831.297,-10456.924,-13659.798,-22356.162,-8829.893,-19082.809,-15703.347,-12932.935,-20595.348,-13075.694,-19699.201,-17718.578,-17033.484,-21378.441,-16605.395,-21292.998,-18293.129,-18715.592,-19463.59,-16321.325,-18809.914
-15598.402,-16795.184,-16086.565,-15194.965,-16654.375,-14987.975,-16862.46,-16233.055,-16890.033,-17724.082,-17382.057,-18830.6,-18271.625,-19051.598,-18910.668,-18621.89,-18790.684,-17867.451,-17944.46,-17151.059,-16843.836,-16527.934,-16029.803,-16214.065,-15973.574
-16350.101,-16448.684,-16641.861,-17144.533,-17467.996,-18021.664,-18175.69,-18492.402,-18647.807,-18559.691,-18562.395,-18287.184,-18058.098,-17700.021,-17362.85,-17044.904,-16668.17,-16461.732,-16263.777,-16244.47,-16354.01,-16557.297,-16855.783,-17143.312,-17452.924
-17692.734,-17968.027,-18226.033,-18371.883,-18427.04,-18352.76,-18173.578,-17885.723,-17622.838,-17353.025,-17034.148,-16780.63,-16566.383,-16487.268,-16514.332,-16581.814,-16772.258,-16971.467,-17134.318,-17345.28,-17615.283,-17864.791,-18024.865,-18125.129,-18154.36
-18127.363,-18046.91,-17875.424,-17641.215,-17412.38,-17264.87,-17121.877,-16912.709,-16715.885,-16613.318,-16656.92,-16794.361,-16951.404,-17126.188,-17335.848,-17551.209,-17723.156,-17853.072,-17935.312,-17960.033,-17930.262,-17859.002,-17738.225,-17570.438,-17391.707
-17213.479,-17098.799,-17037.875,-16953.293,-16892.959,-16906.555,-16973.59,-17088.395,-17281.375,-17492.336,-17642.51,-17742.398,-17797.83,-17832.225,-17838.254,-17782.635,-17684.053,-17626.895,-17553.799,-17357.266,-17212.791,-17117.842,-17000.088,-16982.354,-17001.86
-17042.43,-17097.506,-17161.34,-17302.527,-17427.385,-17521.375,-17579.014,-17587.322,-17620.678,-17646.049,-17634.412,-17601.52,-17574.682,-17532.934,-17439.49,-17347.87,-17290.668,-17247.076,-17195.418,-17166.012,-17157.94,-17148.992,-17204.85,-17344.273,-17445.762
-17452.506,-17512.86,-17583.94,-17522.598,-17473.25,-17490.434,-17510.94,-17529.338,-17538.158,-17525.068,-17429.654,-17316.031,-17274.31,-17266.275,-17259.582,-17284.092,-17332.57,-17317.26,-17310.889,-17361.225,-17391.102,-17432.248,-17476.934,-17507.879,-17481.674
-17413.586,-17419.615,-17417.03,-17388.525,-17403.127,-17403.486,-17379.408,-17347.715,-17352.941,-17372.152,-17333.125,-17314.768,-17348.643,-17369.213,-17399.229,-17458.111,-17475.674,-17447.998,-17438.389,-17482.984,-17517.176,-17455.5,-17417.662,-17399.682,-17392.375
-17515.71,-17556.768,-17480.002,-17429.424,-17393.479,-17409.113,-17384.793,-17372.295,-17400.965,-17363.254,-17373.684,-17374.664,-17323.008,-17327.04,-17335.605,-17343.605,-17357.893,-17369.191,-17358.14,-17309.492,-17373.79,-17510.287,-17542.918,-17540.229,-17501.166
-17442.473,-17446.982,-17396.44,-17327.24,-17336.021,-17362.875,-17366.928,-17328.537,-17328.074,-17363.81,-17350.03,-17333.723,-17355.215,-17382.287,-17376.23,-17396.053,-17456.934,-17483.322,-17538.82,-17642.367,-17660.47,-17555.94,-17438.318,-17382.361,-17357.969
-17345.541,-17327.111,-17290.896,-17277.564,-17279.543,-17311.54,-17403.285,-17418.332,-17336.27,-17351.613,-17445.242,-17514.082,-17586.496,-17633.678,-17639.875,-17583.887,-17488.498,-17448.44,-17428.781,-17446.984,-17427.514,-17300.424,-17249.613,-17224.012,-17192.232
-17231.764,-17266.305,-17328.186,-17392.477,-17413.248,-17419.28,-17482.174,-17607.07,-17612.662,-17566.168,-17573.213,-17546.27,-17507.39,-17461.484,-17422.26,-17408.479,-17326.111,-17210.6,-17199.658,-17255.814,-17281.945,-17289.693,-17361.215,-17484.387,-17523.734
-17479.188,-17440.475,-17501.807,-17613.543,-17623.059,-17601.047,-17560.258,-17533.807,-17533.81,-17418.797,-17310.57,-17276.705,-17280.836,-17287.549,-17256.605,-17264.21,-17258.57,-17286.914,-17351.596,-17395.338,-17528.465,-17649.828,-17698.504,-17693.873,-17598.854
-17503.146,-17452.324,-17428.197,-17400.633,-17376.02,-17382.086,-17363.98,-17327.81,-17315.65,-17268.213,-17240.66,-17273.205,-17287.676,-17362.424,-17427.53,-17445.756,-17519.861,-17554.393,-17605.492,-17618.656,-17515.273,-17451.162,-17421.361,-17462.479,-17502.59
-17463.018,-17424.648,-17341.75,-17283.602,-17269.586,-17245.309,-17240.857,-17256.02,-17324.469,-17393.357,-17447.012,-17500.312,-17483.814,-17452.957,-17465.232,-17501.816,-17539.475,-17540.213,-17466.115,-17330.904,-17276.39,-17306.97,-17311.299,-17342.094,-17375.484
-17354.377,-17342.938,-17373.814,-17422.416,-17427.066,-17425.555,-17460.725,-17478.729,-17508.918,-17533.748,-17523.836,-17525.44,-17464.91,-17374.184,-17356.693,-17342.01,-17344.088,-17379.172,-17355.01,-17305.668,-17333.12,-17392.74,-17374.88,-17345.025,-17377.87
-17428.043,-17469.648,-17482.719,-17494.25,-17505.607,-17468.984,-17425.389,-17406.318,-17412.334,-17412.977,-17367.12,-17344.977,-17352.988,-17325.885,-17339.387,-17389.865,-17357.486,-17339.371,-17388.807,-17402.855,-17440.143,-17491.936,-17518.74,-17574.111,-17578.465
-17522.51,-17486.3,-17469.225,-17459.287,-17452.234,-17443.266,-17407.012,-17345.48,-17291.664,-17275.018,-17289.281,-17302.818,-17332.082,-17362.824,-17380.197,-17393.207,-17391.64,-17400.947,-17415.89,-17427.89,-17449.71,-17464.625,-17455.195,-17424.059,-17402.418
-17375.12,-17358.213,-17373.74,-17357.145,-17355.398,-17394.95,-17420.65,-17440.318,-17437.13,-17427.85,-17418.037,-17425.742,-17478.15,-17499.537,-17520.176,-17534.676,-17461.92,-17406.43,-17416.723,-17403.383,-17370.73,-17355.635,-17335.857,-17335.904,-17356.25
-17356.38,-17380.012,-17407.006,-17384.637,-17362.0,-17382.736,-17440.049,-17491.486,-17492.248,-17457.889,-17448.096,-17437.906,-17399.818,-17388.562,-17371.773,-17343.146,-17372.71,-17439.309,-17504.348,-17537.43,-17512.457,-17488.264,-17502.262,-17462.092,-17373.107
-17380.21,-17415.22,-17397.373,-17440.582,-17473.44,-17440.209,-17435.242,-17422.05,-17413.473,-17406.1,-17383.033,-17422.182,-17462.729,-17419.797,-17326.457,-17316.28,-17364.352,-17341.902,-17357.16,-17379.879,-17361.6,-17384.613,-17380.264,-17384.975,-17406.387
-17417.783,-17458.645,-17455.281,-17438.65,-17401.312,-17351.95,-17409.742,-17462.834,-17464.992,-17466.787,-17428.062,-17398.414,-17416.707,-17470.033,-17502.27,-17495.084,-17486.402,-17429.178,-17367.938,-17373.213,-17378.912,-17362.926,-17378.73,-17421.383,-17436.703
-17433.557,-17426.135,-17422.344,-17424.602,-17413.857,-17429.445,-17450.072,-17448.14,-17431.441,-17360.127,-17298.836,-17332.186,-17432.73,-17511.732,-17485.6,-17409.125,-17395.059,-17397.182,-17378.285,-17387.914,-17369.424,-17354.8,-17404.71,-17438.693,-17436.783
-17435.79,-17457.576,-17466.691,-17479.977,-17517.076,-17515.459,-17467.564,-17380.31,-17381.588,-17459.168,-17439.13,-17398.123,-17387.465,-17399.111,-17431.89,-17464.055,-17479.447,-17434.104,-17446.168,-17469.777,-17383.223,-17326.852,-17319.73,-17337.805,-17380.18
-17365.557,-17361.477,-17406.309,-17419.957,-17433.389,-17428.158,-17407.705,-17455.45,-17485.936,-17475.746,-17462.453,-17431.988,-17442.006,-17525.445,-17626.152,-17632.268,-17535.475,-17405.209,-17306.715,-17274.117,-17285.176,-17336.43,-17377.55,-17397.998,-17410.045
-17412.379,-17429.543,-17446.408,-17482.613,-17479.12,-17423.85,-17411.44,-17399.8,-17395.28,-17422.31,-17423.285,-17421.062,-17402.273,-17337.184,-17308.059,-17350.725,-17427.764,-17467.49,-17446.754,-17471.203,-17510.104,-17495.635,-17514.639,-17507.549,-17395.6
-17338.129,-17398.502,-17450.8,-17479.924,-17461.807,-17362.346,-17313.863,-17320.225,-17342.473,-17415.67,-17429.271,-17408.547,-17455.465,-17471.33,-17463.943,-17505.36,-17523.494,-17506.447,-17492.527,-17466.664,-17429.436,-17396.719,-17414.934,-17450.861,-17425.938
-17434.842,-17465.812,-17422.799,-17405.545,-17409.326,-17402.121,-17429.234,-17440.76,-17465.812,-17471.055,-17413.246,-17427.61,-17462.281,-17447.252,-17439.703,-17406.443,-17423.934,-17491.479,-17464.217,-17405.908,-17403.244,-17400.232,-17387.396,-17412.148,-17418.953
-17401.934,-17420.678,-17419.023,-17418.533,-17456.328,-17508.504,-17556.812,-17521.262,-17428.559,-17380.582,-17387.773,-17381.217,-17365.021,-17422.19,-17467.865,-17460.47,-17465.334,-17440.111,-17405.977,-17407.305,-17431.299,-17428.277,-17367.49,-17330.035,-17343.105
-17412.477,-17487.68,-17479.574,-17421.322,-17368.898,-17416.908,-17492.18,-17503.096,-17508.158,-17436.188,-17368.652,-17385.031,-17397.281,-17412.217,-17435.045,-17465.734,-17443.467,-17380.818,-17374.633,-17432.486,-17481.102,-17435.752,-17403.59,-17409.748,-17405.045
-17404.494,-17374.006,-17389.457,-17392.037,-17384.484,-17492.87,-17557.973,-17532.426,-17497.39,-17430.25,-17401.2,-17429.504,-17382.96,-17346.82,-17417.145,-17411.973,-17378.518,-17402.98,-17402.875,-17366.992,-17289.537,-17304.395,-17377.809,-17368.938,-17380.34
-17415.23,-17446.504,-17487.285,-17509.166,-17499.438,-17457.6,-17458.578,-17479.615,-17457.078,-17429.127,-17385.643,-17353.41,-17361.156,-17352.672,-17371.553,-17422.854,-17427.74,-17421.727,-17409.336,-17404.305,-17437.291,-17434.268,-17415.459,-17417.82,-17387.707
-17351.295,-17401.33,-17483.549,-17476.354,-17428.777,-17377.86,-17355.898,-17373.021,-17335.008,-17342.559,-17398.992,-17374.691,-17375.102,-17406.516,-17396.75,-17401.018,-17424.094,-17478.512,-17518.81,-17419.045,-17340.455,-17402.445,-17443.492,-17469.312,-17452.451
-17400.889,-17429.22,-17452.531,-17440.584,-17396.104,-17373.84,-17397.164,-17373.06,-17372.195,-17397.97,-17416.975,-17444.297,-17420.299,-17394.959,-17406.395,-17403.06,-17418.049,-17450.244,-17459.111,-17474.773,-17447.771,-17373.264,-17371.387,-17419.752,-17436.549
-17465.588,-17500.242,-17475.918,-17445.143,-17416.656,-17387.518,-17400.9,-17408.086,-17384.889,-17350.752,-17338.734,-17326.818,-17308.283,-17367.002,-17445.547,-17448.715,-17409.541,-17412.21,-17431.156,-17391.713,-17380.84,-17399.027,-17403.15,-17459.33,-17469.91
-17403.455,-17379.04,-17382.832,-17406.951,-17425.713,-17413.914,-17417.365,-17393.346,-17378.309,-17422.04,-17458.094,-17486.545,-17510.533,-17525.66,-17492.047,-17382.824,-17327.594,-17341.078,-17355.824,-17402.947,-17416.492,-17398.584,-17436.006,-17459.934,-17471.666
-17493.387,-17433.568,-17331.992,-17305.887,-17350.713,-17393.771,-17404.73,-17369.87,-17347.664,-17397.979,-17430.502,-17422.707,-17409.174,-17399.137,-17438.852,-17494.213,-17481.63,-17411.312,-17384.83,-17395.541,-17397.875,-17410.139,-17428.924,-17463.908,-17461.041
-17417.719,-17372.799,-17339.19,-17381.305,-17453.25,-17463.316,-17418.393,-17429.184,-17502.418,-17505.504,-17433.459,-17364.516,-17373.54,-17456.166,-17502.355,-17436.674,-17360.105,-17367.863,-17384.375,-17388.398,-17377.283,-17369.78,-17375.08,-17354.252,-17367.793
-17402.705,-17417.236,-17404.34,-17397.861,-17439.56,-17412.984,-17358.312,-17411.566,-17494.98,-17505.328,-17436.016,-17374.535,-17375.625,-17406.643,-17442.928,-17466.293,-17470.361,-17437.02,-17410.879,-17441.064,-17436.746,-17416.633,-17416.025,-17373.771,-17396.488
-17457.752,-17417.91,-17369.77,-17373.434,-17414.803,-17461.87,-17446.33,-17418.021,-17403.13,-17398.701,-17451.43,-17482.996,-17471.139,-17482.568,-17451.727,-17386.605,-17383.25,-17406.324,-17389.934,-17389.8,-17417.455,-17405.062,-17416.213,-17426.805,-17374.639
-17366.432,-17426.064,-17509.39,-17531.936,-17489.006,-17473.674,-17449.477,-17446.188,-17480.857,-17474.293,-17443.271,-17417.531,-17433.098,-17441.734,-17388.293,-17392.127,-17416.78,-17368.314,-17346.547,-17375.383,-17426.375,-17453.02,-17429.418,-17408.406,-17386.357
-17413.346,-17463.76,-17449.576,-17407.844,-17363.777,-17349.982,-17358.068,-17381.367,-17393.262,-17359.318,-17376.77,-17406.504,-17415.768,-17453.31,-17482.531,-17528.002,-17554.547,-17504.92,-17424.574,-17395.604,-17415.594,-17413.545,-17405.588,-17386.607,-17376.797
-17385.873,-17381.762,-17415.312,-17420.693,-17378.975,-17397.1,-17413.613,-17403.213,-17420.52,-17418.057,-17424.662,-17466.91,-17472.902,-17483.31,-17504.89,-17432.293,-17327.18,-17313.656,-17357.096,-17412.992,-17459.621,-17470.953,-17464.926,-17449.936,-17468.326
-17486.06,-17464.94,-17497.406,-17485.244,-17373.182,-17361.969,-17403.918,-17356.494,-17347.268,-17399.762,-17419.463,-17443.924,-17428.748,-17356.049,-17370.695,-17457.312,-17473.691,-17439.484,-17430.418,-17422.783,-17423.594,-17486.568,-17575.078,-17547.014,-17405.205
-17362.553,-17429.146,-17474.467,-17488.307,-17436.225,-17351.291,-17332.932,-17372.285,-17434.58,-17484.72,-17479.615,-17478.053,-17523.723,-17491.31,-17408.371,-17411.55,-17407.852,-17384.615,-17396.025,-17362.889,-17337.922,-17368.105,-17352.312,-17312.469,-17335.832
-17374.754,-17393.686,-17432.932,-17469.926,-17475.521,-17460.637,-17430.686,-17407.143,-17425.832,-17461.783,-17458.666,-17494.572,-17533.11,-17455.783,-17412.557,-17410.217,-17410.684,-17487.557,-17471.963,-17382.822,-17347.348,-17341.773,-17397.773,-17437.152,-17454.713
-17472.959,-17441.475,-17430.68,-17445.107,-17459.164,-17444.102,-17411.047,-17397.723,-17404.857,-17480.969,-17476.223,-17380.64,-17370.684,-17362.877,-17361.137,-17422.191,-17476.146,-17475.256,-17431.252,-17420.936,-17452.47,-17464.332,-17453.496,-17482.37,-17485.094
-17412.434,-17381.488,-17408.537,-17455.016,-17434.594,-17340.967,-17323.078,-17353.46,-17391.174,-17452.146,-17463.793,-17434.07,-17425.879,-17432.291,-17422.135,-17404.799,-17410.58,-17437.074,-17455.672,-17477.42,-17481.926,-17438.281,-17440.145,-17459.361,-17396.637
-17345.12,-17360.523,-17406.986,-17439.49,-17448.42,-17476.475,-17470.125,-17425.62,-17419.562,-17409.008,-17369.693,-17371.553,-17404.354,-17417.4,-17414.266,-17377.705,-17364.734,-17417.613,-17431.979,-17414.309,-17437.584,-17495.365,-17535.367,-17492.5,-17426.998
-17403.764,-17402.406,-17426.186,-17430.906,-17407.672,-17412.4,-17428.102,-17445.027,-17466.846,-17455.748,-17423.598,-17430.805,-17446.43,-17435.215,-17440.873,-17445.18,-17439.756,-17422.004,-17386.006,-17390.223,-17419.068,-17427.469,-17417.883,-17414.783,-17404.748
-17375.723,-17392.04,-17420.88,-17420.06,-17434.555,-17454.979,-17474.902,-17486.11,-17453.484,-17373.652,-17296.248,-17320.693,-17429.217,-17497.102,-17524.533,-17540.129,-17500.908,-17444.611,-17429.625,-17427.91,-17410.316,-17406.824,-17448.646,-17458.553,-17405.506
-17391.041,-17420.982,-17450.885,-17439.203,-17386.176,-17389.82,-17417.059,-17413.914,-17426.096,-17449.072,-17459.729,-17445.135,-17443.79,-17486.639,-17540.234,-17537.254,-17432.006,-17367.139,-17411.227,-17430.111,-17421.979,-17433.598,-17427.59,-17401.943,-17433.375
-17480.918,-17452.639,-17434.008,-17389.07,-17322.074,-17353.156,-17406.695,-17473.336,-17497.875,-17438.926,-17429.812,-17439.662,-17440.822,-17432.078,-17403.227,-17423.7,-17460.293,-17475.22,-17447.898,-17427.814,-17457.76,-17467.316,-17502.031,-17481.76,-17399.576
-17438.943,-17508.32,-17535.484,-17507.227,-17435.678,-17417.303,-17413.223,-17433.727,-17451.646,-17413.744,-17384.143,-17389.918,-17413.053,-17426.754,-17451.77,-17448.818,-17428.006,-17435.256,-17419.549,-17459.727,-17517.473,-17522.834,-17510.564,-17442.39,-17419.842
-17408.678,-17373.389,-17411.035,-17425.584,-17450.83,-17508.03,-17531.127,-17522.553,-17452.254,-17422.004,-17432.55,-17406.555,-17424.86,-17458.17,-17441.354,-17448.096,-17467.71,-17436.871,-17394.787,-17365.746,-17356.604,-17358.295,-17370.994,-17403.783,-17428.91
-17438.727,-17412.848,-17400.59,-17415.068,-17415.357,-17446.592,-17479.201,-17481.773,-17452.771,-17404.713,-17396.414,-17444.602,-17540.521,-17572.83,-17516.557,-17495.098,-17494.18,-17469.354,-17428.5,-17404.588,-17413.004,-17416.904,-17427.078,-17442.17,-17451.977
-17454.934,-17464.535,-17481.781,-17433.29,-17368.754,-17380.941,-17412.373,-17406.047,-17391.84,-17392.791,-17395.045,-17415.443,-17454.098,-17491.217,-17514.773,-17522.615,-17543.594,-17508.57,-17390.178,-17359.45,-17436.996,-17473.08,-17475.428,-17490.287,-17499.797
-17516.596,-17470.96,-17381.285,-17408.139,-17429.846,-17368.387,-17384.127,-17411.854,-17400.195,-17383.098,-17367.314,-17413.188,-17464.059,-17492.768,-17498.986,-17489.094,-17490.2,-17427.426,-17372.334,-17413.316,-17473.648,-17509.916,-17540.87,-17561.912,-17518.217
-17439.467,-17400.121,-17404.152,-17442.08,-17486.64,-17479.838,-17432.592,-17423.424,-17426.59,-17415.082,-17413.582,-17401.05,-17405.518,-17430.893,-17464.26,-17474.178,-17421.613,-17423.814,-17480.166,-17469.281,-17436.484,-17431.89,-17428.768,-17412.906,-17407.49
-17428.213,-17447.348,-17450.654,-17438.873,-17422.014,-17425.285,-17444.836,-17463.115,-17493.518,-17499.25,-17457.975,-17475.262,-17529.768,-17528.693,-17487.94,-17373.684,-17283.816,-17329.027,-17384.373,-17415.943,-17446.352,-17444.65,-17436.83,-17433.715,-17422.406
-17394.816,-17394.13,-17441.166,-17473.537,-17475.908,-17437.398,-17366.86,-17341.201,-17382.814,-17467.027,-17520.312,-17499.943,-17461.549,-17460.764,-17535.453,-17544.418,-17412.018,-17368.129,-17449.09,-17498.984,-17483.078,-17479.309,-17510.766,-17474.508,-17404.031
-17379.223,-17392.615,-17402.535,-17392.531,-17426.443,-17448.008,-17424.21,-17411.2,-17403.219,-17418.309,-17447.71,-17452.979,-17436.06,-17465.307,-17496.18,-17460.338,-17453.518,-17450.52,-17437.094,-17436.426,-17415.83,-17406.113,-17375.201,-17376.467,-17421.236
-17417.748,-17418.121,-17446.213,-17494.365,-17536.066,-17514.863,-17436.537,-17372.82,-17383.816,-17402.877,-17413.148,-17431.555,-17411.762,-17382.535,-17387.879,-17409.74,-17416.623,-17427.742,-17444.768,-17448.135,-17449.71,-17446.654,-17437.525,-17408.277,-17384.182
-17385.385,-17397.62,-17438.85,-17485.113,-17491.723,-17440.877,-17406.365,-17418.207,-17393.395,-17367.562,-17397.402,-17465.9,-17500.875,-17462.748,-17434.41,-17425.215,-17414.984,-17409.225,-17404.074,-17430.379,-17431.713,-17390.256,-17391.57,-17413.252,-17426.264
-17459.498,-17450.275,-17417.266,-17448.025,-17444.625,-17418.07,-17457.277,-17499.541,-17514.648,-17461.402,-17421.734,-17444.125,-17418.76,-17422.436,-17447.178,-17448.232,-17475.73,-17467.477,-17443.02,-17442.357,-17452.547,-17435.43,-17396.564,-17432.607,-17474.66
-17466.988,-17457.88,-17431.648,-17436.533,-17471.152,-17462.88,-17429.168,-17411.742,-17398.428,-17369.28,-17381.012,-17412.021,-17405.535,-17426.85,-17451.91,-17429.59,-17422.322,-17441.676,-17442.701,-17456.63,-17466.566,-17418.785,-17409.773,-17432.9,-17433.621
-17433.172,-17405.855,-17408.402,-17441.13,-17482.34,-17493.438,-17457.293,-17472.254,-17458.037,-17419.39,-17415.004,-17405.387,-17406.648,-17410.771,-17484.686,-17518.098,-17428.832,-17370.346,-17363.555,-17380.176,-17360.03,-17343.076,-17381.426,-17426.61,-17484.352
-17486.55,-17453.928,-17455.83,-17468.371,-17440.43,-17388.97,-17412.049,-17459.5,-17500.812,-17534.742,-17537.57,-17506.838,-17411.688,-17366.697,-17379.086,-17383.535,-17410.84,-17426.277,-17436.879,-17429.467,-17410.352,-17411.838,-17401.154,-17399.719,-17425.04
-17446.402,-17424.113,-17365.514,-17345.326,-17355.367,-17342.773,-17375.154,-17433.576,-17442.443,-17477.045,-17520.72,-17532.959,-17535.273,-17501.426,-17456.094,-17420.83,-17425.21,-17451.914,-17434.576,-17411.42,-17389.684,-17360.63,-17367.967,-17381.387,-17394.96
-17472.812,-17540.762,-17498.576,-17413.74,-17362.31,-17361.486,-17398.326,-17419.676,-17402.908,-17397.94,-17408.87,-17397.293,-17416.494,-17463.85,-17479.018,-17466.293,-17441.756,-17430.262,-17411.87,-17378.371,-17369.932,-17395.262,-17431.762,-17441.678,-17438.057
-17404.266,-17346.121,-17370.156,-17427.293,-17453.795,-17467.273,-17430.883,-17418.58,-17435.799,-17416.812,-17400.361,-17381.906,-17391.621,-17421.582,-17428.75,-17432.707,-17436.334,-17459.662,-17461.31,-17444.734,-17452.252,-17452.72,-17440.422,-17407.56,-17390.352
-17386.107,-17391.656,-17433.0,-17419.605,-17383.299,-17406.463,-17443.037,-17484.646,-17519.334,-17480.5,-17407.834,-17392.717,-17391.828,-17414.746,-17453.463,-17420.24,-17412.258,-17430.258,-17408.824,-17425.162,-17451.031,-17459.625,-17461.508,-17443.24,-17447.7
-17459.17,-17471.363,-17490.12,-17443.895,-17398.268,-17403.861,-17383.547,-17387.652,-17404.809,-17389.594,-17387.328,-17384.531,-17392.31,-17380.338,-17358.13,-17406.416,-17498.416,-17571.115,-17555.38,-17457.916,-17365.855,-17365.654,-17391.648,-17343.783,-17348.701
-17388.172,-17381.328,-17391.775,-17393.879,-17395.64,-17398.924,-17402.342,-17422.17,-17435.049,-17445.54,-17404.617,-17381.307,-17433.574,-17448.25,-17420.957,-17395.473,-17389.014,-17394.764,-17406.965,-17419.326,-17405.418,-17419.9,-17449.914,-17462.29,-17477.656
-17467.814,-17462.916,-17481.71,-17506.434,-17511.982,-17444.215,-17370.805,-17388.08,-17443.473,-17429.193,-17371.959,-17368.012,-17380.674,-17385.256,-17426.986,-17449.752,-17414.219,-17394.205,-17386.309,-17363.799,-17384.44,-17407.195,-17402.973,-17407.012,-17383.195
-17364.945,-17384.969,-17393.63,-17391.072,-17389.678,-17356.666,-17342.549,-17393.748,-17412.12,-17413.195,-17434.672,-17421.043,-17409.271,-17417.195,-17430.416,-17437.947,-17457.484,-17494.092,-17477.035,-17436.705,-17427.322,-17426.637,-17403.646,-17379.422,-17402.314
-17418.24,-17418.004,-17431.941,-17416.654,-17403.066,-17408.207,-17401.129,-17406.812,-17420.383,-17424.088,-17407.38,-17383.229,-17395.816,-17402.764,-17400.068,-17425.305,-17419.785,-17389.152,-17386.992,-17411.234,-17425.94,-17430.592,-17452.582,-17421.506,-17362.182
-17360.824,-17358.84,-17366.447,-17423.516,-17461.506,-17443.97,-17433.95,-17447.822,-17421.68,-17402.96,-17407.447,-17376.713,-17376.734,-17413.332,-17416.732,-17401.336,-17393.637,-17387.193,-17370.93,-17387.531,-17446.248,-17463.967,-17437.434,-17405.234,-17368.057
-17360.648,-17368.78,-17378.652,-17414.102,-17409.707,-17380.447,-17402.924,-17433.033,-17440.914,-17419.035,-17392.436,-17387.664,-17360.982,-17349.73,-17377.857,-17410.031,-17421.508,-17435.498,-17500.002,-17500.055,-17430.678,-17405.51,-17421.01,-17450.176,-17389.55
-17341.12,-17403.207,-17393.299,-17360.0,-17373.775,-17383.615,-17399.521,-17381.727,-17372.059,-17383.557,-17391.69,-17415.232,-17422.594,-17428.613,-17418.596,-17389.271,-17380.508,-17368.342,-17363.107,-17362.998,-17345.783,-17355.816,-17417.496,-17457.469,-17444.172
-17421.793,-17387.46,-17374.877,-17382.744,-17430.604,-17526.848,-17498.77,-17438.842,-17432.348,-17341.383,-17299.09,-17324.041,-17341.537,-17399.658,-17438.121,-17455.973,-17433.38,-17376.041,-17366.965,-17373.697,-17368.932,-17371.588,-17403.736,-17456.846,-17497.861
-17501.865,-17444.818,-17364.924,-17345.512,-17381.168,-17376.791,-17353.617,-17378.898,-17416.62,-17404.164,-17352.205,-17349.586,-17374.16,-17406.615,-17453.898,-17468.568,-17502.064,-17501.62,-17468.719,-17504.113,-17499.328,-17428.324,-17347.023,-17295.05,-17332.895
-17392.262,-17431.87,-17460.293,-17449.363,-17425.893,-17404.787,-17376.06,-17374.47,-17386.691,-17374.64,-17351.701,-17348.123,-17372.965,-17384.146,-17383.455,-17372.096,-17331.902,-17312.11,-17334.238,-17389.8,-17432.314,-17433.932,-17434.889,-17472.68,-17516.748
-17487.592,-17468.703,-17464.658,-17399.957,-17397.355,-17407.951,-17369.566,-17362.643,-17352.307,-17389.305,-17486.145,-17515.438,-17469.21,-17430.809,-17442.111,-17466.22,-17478.053,-17474.193,-17407.734,-17330.814,-17354.686,-17392.492,-17369.691,-17372.602,-17367.87
-17334.71,-17330.197,-17324.174,-17331.287,-17356.672,-17377.203,-17411.67,-17404.799,-17360.2,-17377.484,-17418.525,-17407.836,-17383.11,-17381.215,-17395.846,-17409.252,-17415.96,-17425.502,-17434.629,-17427.053,-17408.0,-17409.861,-17410.016,-17397.113,-17429.668
-17469.08,-17453.094,-17420.137,-17408.777,-17428.166,-17427.69,-17378.172,-17342.607,-17348.781,-17390.54,-17451.426,-17470.53,-17428.174,-17386.645,-17367.027,-17388.348,-17462.398,-17478.828,-17428.588,-17382.094,-17347.975,-17355.703,-17358.902,-17346.533,-17367.67
-17373.35,-17373.213,-17370.812,-17339.744,-17387.283,-17461.846,-17439.314,-17430.998,-17459.996,-17467.148,-17464.85,-17427.348,-17391.893,-17408.74,-17439.162,-17423.771,-17377.99,-17354.068,-17354.064,-17369.994,-17377.291,-17393.104,-17413.47,-17414.645,-17412.254
-17382.678,-17373.08,-17377.377,-17375.926,-17400.86,-17393.127,-17385.338,-17384.662,-17362.014,-17347.668,-17332.39,-17334.766,-17339.809,-17364.875,-17418.367,-17427.389,-17417.697,-17436.674,-17472.398,-17471.133,-17413.137,-17377.2,-17371.22,-17367.293,-17370.672
-17345.602,-17334.19,-17384.273,-17433.125,-17424.188,-17387.775,-17377.254,-17350.629,-17329.969,-17359.326,-17375.941,-17394.88,-17402.865,-17370.371,-17341.441,-17312.807,-17325.355,-17379.803,-17398.129,-17402.102,-17414.348,-17433.482,-17475.533,-17480.455,-17416.12
-17372.684,-17400.14,-17427.299,-17408.55,-17379.33,-17388.596,-17417.625,-17401.309,-17389.799,-17424.465,-17438.021,-17417.428,-17378.018,-17329.463,-17318.488,-17361.729,-17388.334,-17379.504,-17381.908,-17377.19,-17364.68,-17332.807,-17312.768,-17354.521,-17347.537
-17325.744,-17393.3,-17456.09,-17485.21,-17467.941,-17398.402,-17378.568,-17392.373,-17412.307,-17436.941,-17399.068,-17361.473,-17381.29,-17416.986,-17442.129,-17445.158,-17441.656,-17410.084,-17372.55,-17339.879,-17313.402,-17345.719,-17344.979,-17312.984,-17313.324
-17301.955,-17326.658,-17378.646,-17404.52,-17390.227,-17349.762,-17351.244,-17391.627,-17411.396,-17409.328,-17448.326,-17458.422,-17405.27,-17416.564,-17426.14,-17367.26,-17310.965,-17297.564,-17343.451,-17381.1,-17374.27,-17353.746,-17380.549,-17434.164,-17395.201
-17329.73,-17326.15,-17366.16,-17391.11,-17329.428,-17306.93,-17403.076,-17476.111,-17444.86,-17365.191,-17339.238,-17365.703,-17380.996,-17378.656,-17380.508,-17397.404,-17357.824,-17290.977,-17321.852,-17401.512,-17460.598,-17468.982,-17409.139,-17344.746,-17328.736
-17365.016,-17368.967,-17323.951,-17321.363,-17346.662,-17399.959,-17446.543,-17395.79,-17362.736,-17413.594,-17439.684,-17425.676,-17396.186,-17358.033,-17346.318,-17355.217,-17343.434,-17336.994,-17362.994,-17378.643,-17376.205,-17366.627,-17363.797,-17367.992,-17350.309
-17361.373,-17441.232,-17537.918,-17586.488,-17547.621,-17451.742,-17358.951,-17285.354,-17243.625,-17246.46,-17270.92,-17314.826,-17345.271,-17341.396,-17365.555,-17380.709,-17383.154,-17414.0,-17424.973,-17437.01,-17402.59,-17311.957,-17278.299,-17275.004,-17277.568
-17308.082,-17345.654,-17361.416,-17364.04,-17385.129,-17402.736,-17423.299,-17446.242,-17446.314,-17445.105,-17443.545,-17422.797,-17370.33,-17332.15,-17350.389,-17344.91,-17322.75,-17369.982,-17407.916,-17372.664,-17317.68,-17312.62,-17366.35,-17374.252,-17352.527
-17366.045,-17364.23,-17381.498,-17424.922,-17405.68,-17340.297,-17311.781,-17312.518,-17309.89,-17351.086,-17392.154,-17371.96,-17379.252,-17400.479,-17378.281,-17362.2,-17368.314,-17397.28,-17391.682,-17338.443,-17331.715,-17348.18,-17346.834,-17370.459,-17424.666
-17428.227,-17361.521,-17338.822,-17376.951,-17420.266,-17421.682,-17355.904,-17313.719,-17316.996,-17340.936,-17371.502,-17351.604,-17343.996,-17352.375,-17327.615,-17319.963,-17320.531,-17326.637,-17337.648,-17352.2,-17379.533,-17408.6,-17435.61,-17416.1,-17387.613
-17379.395,-17377.494,-17410.799,-17420.873,-17386.676,-17335.291,-17294.094,-17314.824,-17355.023,-17375.51,-17387.318,-17369.154,-17363.086,-17392.225,-17366.916,-17349.127,-17387.195,-17369.117,-17341.086,-17330.453,-17319.758,-17345.287,-17362.697,-17368.729,-17364.78
-17373.986,-17420.93,-17475.914,-17482.0,-17404.715,-17381.605,-17376.314,-17323.053,-17346.295,-17370.121,-17364.58,-17361.871,-17342.338,-17352.854,-17351.164,-17324.191,-17303.336,-17304.95,-17358.291,-17419.58,-17449.781,-17457.912,-17428.29,-17384.105,-17375.992
-17334.525,-17286.268,-17308.645,-17313.727,-17317.424,-17323.668,-17307.164,-17311.701,-17316.611,-17341.516,-17350.855,-17342.537,-17350.158,-17339.076,-17326.496,-17294.512,-17288.807,-17326.426,-17354.436,-17375.744,-17363.37,-17369.885,-17394.367,-17380.266,-17388.9
-17429.912,-17435.791,-17366.877,-17304.428,-17328.8,-17368.79,-17375.379,-17366.277,-17360.486,-17383.945,-17412.959,-17417.709,-17411.81,-17390.99,-17364.033,-17349.686,-17339.484,-17327.436,-17305.818,-17308.547,-17350.865,-17361.049,-17326.2,-17305.615,-17301.852
-17305.084,-17320.166,-17318.52,-17331.31,-17368.508,-17370.914,-17366.545,-17384.666,-17399.107,-17385.988,-17362.572,-17354.465,-17347.768,-17352.96,-17355.787,-17354.262,-17365.436,-17371.406,-17383.904,-17379.365,-17347.768,-17331.82,-17361.715,-17411.334,-17402.977
-17373.355,-17347.105,-17306.166,-17319.773,-17356.506,-17373.879,-17377.111,-17352.51,-17345.521,-17351.752,-17354.344,-17348.184,-17350.602,-17399.096,-17396.672,-17346.668,-17341.86,-17351.975,-17368.1,-17374.643,-17362.53,-17360.107,-17368.428,-17389.406,-17390.117
-17359.732,-17342.365,-17348.154,-17370.838,-17408.33,-17423.826,-17395.654,-17348.658,-17318.23,-17322.764,-17317.893,-17311.732,-17339.533,-17345.744,-17342.24,-17345.492,-17351.516,-17398.385,-17437.506,-17428.035,-17371.332,-17310.623,-17312.121,-17338.62,-17365.758
-17399.229,-17430.97,-17457.713,-17431.31,-17375.258,-17364.336,-17360.477,-17351.402,-17383.229,-17400.818,-17371.148,-17341.406,-17327.08,-17339.445,-17362.004,-17336.377,-17298.771,-17319.973,-17353.111,-17363.176,-17354.627,-17331.59,-17351.154,-17386.713,-17383.502
-17378.383,-17388.002,-17395.406,-17382.354,-17366.008,-17372.623,-17380.17,-17381.766,-17379.826,-17365.877,-17351.072,-17342.193,-17343.729,-17366.621,-17386.113,-17376.373,-17366.576,-17366.885,-17363.998,-17369.572,-17367.232,-17344.441,-17343.086,-17387.605,-17431.123
-17426.56,-17379.014,-17325.092,-17322.693,-17343.305,-17339.273,-17344.562,-17335.846,-17318.768,-17326.037,-17323.508,-17309.457,-17289.867,-17294.89,-17330.248,-17361.795,-17389.572,-17381.857,-17375.678,-17404.18,-17393.398,-17352.14,-17329.146,-17380.637,-17468.299
-17448.188,-17435.445,-17504.889,-17479.904,-17407.227,-17383.05,-17359.7,-17364.02,-17375.166,-17363.56,-17363.154,-17363.72,-17358.469,-17336.047,-17327.215,-17340.346,-17342.156,-17364.568,-17388.996,-17390.621,-17375.064,-17372.086,-17412.334,-17442.982,-17411.113
-17349.31,-17375.67,-17421.723,-17361.607,-17312.479,-17337.95,-17380.412,-17371.525,-17311.97,-17265.25,-17285.5,-17400.613,-17470.594,-17431.758,-17372.31,-17327.426,-17308.719,-17289.436,-17307.594,-17354.799,-17365.465,-17384.695,-17406.844,-17409.396,-17413.408
-17411.129,-17369.512,-17328.053,-17335.184,-17322.855,-17326.832,-17369.293,-17375.615,-17382.633,-17385.027,-17375.17,-17387.523,-17373.7,-17330.957,-17289.732,-17272.479,-17333.07,-17406.432,-17439.842,-17491.588,-17488.39,-17427.273,-17413.98,-17390.389,-17326.492
-17306.082,-17326.975,-17321.244,-17318.713,-17326.139,-17334.736,-17387.941,-17407.55,-17385.826,-17368.863,-17340.21,-17321.928,-17313.793,-17336.264,-17359.615,-17384.63,-17439.807,-17461.695,-17430.225,-17345.99,-17321.164,-17360.375,-17328.346,-17318.164,-17338.213
-17327.557,-17352.988,-17384.924,-17380.367,-17368.479,-17377.098,-17380.605,-17369.72,-17368.488,-17355.162,-17334.945,-17314.443,-17319.781,-17354.86,-17353.92,-17342.305,-17333.812,-17327.465,-17365.504,-17413.19,-17430.822,-17403.541,-17360.07,-17363.732,-17387.209
-17382.572,-17381.275,-17392.725,-17387.912,-17386.5,-17396.809,-17406.285,-17414.854,-17401.963,-17361.363,-17331.738,-17337.459,-17358.791,-17382.26,-17377.896,-17337.377,-17319.816,-17337.09,-17355.746,-17371.164,-17393.744,-17421.889,-17441.441,-17423.975,-17350.396
-17269.21,-17249.018,-17309.797,-17393.29,-17426.96,-17428.5,-17396.953,-17351.584,-17346.365,-17334.604,-17346.355,-17384.385,-17377.605,-17388.615,-17388.762,-17336.65,-17315.562,-17340.719,-17367.979,-17365.81,-17372.816,-17373.186,-17345.11,-17362.068,-17367.691
-17351.168,-17369.277,-17368.213,-17375.227,-17373.652,-17334.23,-17324.791,-17320.385,-17320.57,-17328.082,-17327.754,-17360.295,-17382.02,-17374.18,-17378.021,-17391.904,-17414.633,-17415.326,-17385.11,-17362.307,-17347.781,-17386.26,-17446.645,-17378.541,-17287.398
-17322.928,-17365.48,-17350.926,-17340.86,-17359.572,-17389.102,-17418.15,-17423.42,-17371.129,-17321.48,-17323.256,-17333.752,-17321.055,-17319.217,-17356.906,-17368.854,-17344.209,-17331.67,-17331.139,-17337.078,-17340.258,-17345.111,-17335.098,-17322.21,-17346.97
-17370.35,-17377.09,-17391.025,-17397.854,-17373.514,-17350.371,-17373.621,-17406.121,-17399.5,-17377.191,-17372.922,-17339.98,-17311.781,-17350.77,-17356.768,-17342.258,-17357.691,-17347.133,-17340.451,-17334.598,-17316.537,-17328.418,-17342.482,-17355.635,-17409.908
-17426.873,-17378.896,-17383.523,-17407.79,-17394.768,-17361.535,-17322.164,-17341.176,-17377.584,-17409.213,-17448.19,-17430.324,-17383.594,-17358.467,-17383.693,-17424.389,-17376.697,-17305.273,-17308.012,-17313.932,-17309.688,-17321.238,-17335.297,-17410.1,-17483.71
-17432.043,-17338.158,-17335.836,-17376.549,-17378.742,-17366.627,-17344.035,-17340.23,-17371.75,-17391.777,-17398.71,-17393.701,-17365.908,-17338.398,-17326.787,-17322.91,-17343.273,-17347.582,-17335.016,-17354.268,-17360.398,-17373.084,-17396.613,-17410.334,-17431.95
-17443.49,-17452.7,-17429.234,-17376.568,-17351.018,-17375.463,-17410.041,-17383.26,-17345.709,-17327.094,-17315.543,-17350.355,-17373.678,-17352.307,-17344.879,-17345.107,-17348.11,-17360.361,-17371.428,-17393.436,-17401.434,-17408.701,-17448.494,-17469.572,-17428.732
-17364.557,-17350.662,-17373.998,-17380.998,-17367.557,-17345.89,-17331.879,-17324.793,-17323.152,-17348.062,-17395.824,-17419.531,-17439.363,-17474.568,-17451.521,-17393.479,-17399.992,-17450.848,-17415.297,-17319.871,-17302.139,-17325.336,-17376.3,-17415.525,-17377.045
-17369.63,-17396.65,-17428.518,-17447.809,-17423.271,-17411.51,-17379.28,-17377.861,-17423.982,-17409.572,-17388.664,-17375.56,-17363.893,-17371.836,-17372.852,-17392.508,-17391.443,-17356.057,-17352.736,-17360.621,-17358.38,-17386.768,-17418.88,-17400.936,-17379.045
-17366.016,-17347.613,-17351.342,-17348.51,-17366.717,-17404.594,-17408.938,-17411.93,-17392.984,-17378.23,-17383.543,-17369.89,-17384.885,-17393.215,-17385.73,-17391.764,-17381.162,-17357.607,-17322.244,-17336.867,-17373.57,-17355.646,-17353.283,-17369.064,-17375.96
-17373.232,-17375.047,-17388.701,-17362.092,-17359.812,-17382.168,-17379.088,-17402.693,-17416.383,-17420.486,-17418.926,-17389.725,-17369.07,-17339.67,-17328.635,-17344.02,-17345.727,-17356.006,-17351.125,-17327.379,-17342.393,-17357.941,-17346.785,-17376.957,-17423.281
-17442.268,-17460.805,-17437.814,-17376.996,-17364.906,-17381.13,-17374.566,-17373.584,-17372.436,-17357.264,-17349.93,-17346.418,-17357.914,-17375.17,-17384.771,-17393.35,-17367.68,-17331.535,-17321.467,-17319.348,-17332.607,-17368.07,-17419.928,-17458.787,-17441.79
-17385.617,-17361.492,-17391.072,-17400.434,-17382.953,-17374.775,-17363.262,-17372.994,-17370.752,-17340.117,-17339.025,-17365.916,-17425.117,-17447.652,-17367.348,-17311.14,-17363.344,-17413.102,-17389.96,-17393.213,-17423.16,-17396.613,-17378.963,-17382.553,-17349.166
-17313.002,-17302.232,-17325.234,-17359.738,-17373.422,-17392.53,-17397.443,-17380.898,-17377.188,-17374.87,-17373.156,-17357.521,-17326.086,-17328.26,-17368.416,-17377.676,-17365.488,-17375.71,-17351.47,-17357.975,-17411.617,-17396.945,-17372.281,-17381.303,-17414.443
-17427.328,-17385.916,-17364.025,-17333.617,-17314.479,-17326.89,-17333.412,-17372.303,-17363.658,-17334.89,-17380.213,-17418.42,-17421.436,-17408.64,-17402.4,-17425.262,-17461.322,-17459.104,-17413.594,-17405.898,-17411.836,-17360.652,-17284.47,-17275.965,-17346.59
-17380.402,-17371.035,-17381.654,-17390.332,-17387.73,-17359.396,-17336.316,-17364.787,-17378.197,-17372.676,-17369.08,-17348.902,-17341.033,-17328.88,-17325.934,-17343.791,-17365.615,-17401.898,-17390.012,-17367.945,-17414.148,-17445.879,-17416.549,-17376.145,-17365.94
-17381.97,-17396.695,-17383.982,-17366.186,-17382.38,-17384.674,-17364.02,-17355.357,-17333.607,-17324.068,-17348.84,-17350.035,-17328.312,-17325.871,-17344.139,-17382.299,-17411.227,-17404.615,-17390.75,-17384.055,-17389.182,-17414.732,-17425.973,-17408.148,-17399.621
-17402.855,-17408.693,-17399.447,-17373.895,-17388.982,-17389.834,-17342.262,-17341.72,-17353.379,-17329.518,-17332.451,-17373.385,-17392.951,-17363.139,-17348.73,-17367.293,-17377.79,-17372.086,-17353.791,-17341.547,-17331.986,-17348.96,-17376.21,-17374.883,-17391.967
-17393.531,-17367.777,-17360.352,-17357.799,-17369.025,-17381.059,-17381.104,-17367.434,-17335.559,-17314.96,-17315.39,-17338.621,-17385.389,-17424.05,-17436.373,-17469.258,-17513.566,-17475.861,-17393.863,-17353.225,-17319.21,-17305.95,-17355.162,-17405.373,-17421.762
-17415.533,-17393.697,-17375.098,-17347.307,-17309.156,-17323.326,-17368.31,-17350.814,-17313.945,-17305.205,-17307.703,-17333.469,-17350.873,-17350.07,-17338.996,-17320.49,-17337.219,-17370.041,-17376.885,-17381.059,-17393.908,-17367.441,-17321.492,-17337.336,-17373.307
-17372.246,-17383.379,-17404.867,-17402.79,-17394.729,-17361.53,-17325.998,-17337.945,-17359.361,-17384.77,-17392.852,-17355.973,-17347.746,-17377.354,-17391.832,-17352.672,-17319.56,-17383.408,-17372.037,-17270.018,-17286.496,-17307.469,-17287.543,-17325.26,-17343.682
-17346.506,-17367.018,-17376.135,-17378.541,-17387.412,-17398.926,-17401.113,-17391.889,-17362.994,-17353.12,-17384.66,-17413.318,-17411.965,-17384.852,-17354.418,-17326.074,-17299.363,-17278.361,-17291.81,-17325.895,-17332.604,-17336.846,-17334.773,-17334.2,-17335.404
-17312.73,-17305.797,-17309.254,-17318.236,-17314.748,-17292.883,-17322.322,-17364.348,-17348.822,-17310.875,-17320.725,-17395.473,-17471.094,-17447.062,-17346.158,-17321.395,-17360.193,-17368.678,-17350.281,-17328.154,-17329.275,-17341.852,-17358.59,-17360.164,-17343.865
-17352.984,-17361.582,-17346.053,-17311.959,-17290.424,-17299.104,-17310.115,-17326.459,-17336.73,-17346.23,-17361.443,-17364.418,-17352.637,-17330.973,-17345.438,-17361.549,-17335.758,-17310.1,-17277.36,-17268.49,-17303.336,-17364.543,-17429.182,-17404.688,-17351.8
-17351.965,-17337.596,-17317.93,-17300.451,-17288.875,-17324.008,-17338.889,-17326.113,-17351.945,-17348.258,-17299.7,-17293.346,-17318.676,-17338.738,-17325.31,-17297.473,-17326.568,-17374.04,-17387.176,-17355.926,-17305.271,-17317.441,-17336.73,-17321.541,-17354.375
-17355.477,-17289.57,-17275.502,-17292.107,-17305.756,-17333.604,-17338.244,-17322.387,-17318.805,-17328.596,-17336.215,-17349.184,-17361.057,-17352.215,-17332.533,-17317.424,-17329.438,-17331.395,-17302.25,-17284.945,-17295.639,-17317.06,-17305.598,-17310.252,-17325.219
-17308.209,-17329.205,-17331.336,-17330.582,-17379.746,-17373.771,-17347.127,-17329.973,-17275.566,-17242.906,-17251.893,-17259.096,-17268.457,-17286.744,-17333.809,-17416.969,-17465.863,-17448.092,-17384.377,-17339.193,-17344.738,-17358.137,-17392.316,-17415.316,-17401.846
-17405.166,-17394.035,-17341.377,-17311.113,-17296.844,-17284.719,-17320.316,-17320.451,-17301.988,-17333.94,-17344.875,-17367.08,-17368.174,-17338.129,-17338.639,-17326.285,-17325.104,-17334.738,-17335.61,-17329.816,-17323.562,-17325.797,-17308.328,-17303.643,-17309.088
-17317.584,-17341.303,-17341.088,-17330.328,-17331.59,-17330.44,-17308.62,-17285.365,-17295.52,-17318.107,-17308.146,-17284.822,-17301.688,-17321.041,-17329.262,-17372.645,-17395.316,-17366.592,-17353.465,-17353.107,-17344.19,-17350.055,-17347.453,-17346.977,-17361.32
-17343.389,-17331.475,-17336.396,-17315.516,-17320.582,-17349.844,-17344.963,-17331.562,-17348.729,-17372.03,-17359.986,-17338.559,-17321.906,-17306.389,-17336.113,-17365.076,-17361.63,-17365.88,-17358.93,-17341.23,-17308.482,-17295.633,-17325.822,-17325.281,-17317.428
-17319.98,-17305.072,-17296.535,-17294.51,-17305.123,-17316.178,-17313.248,-17325.588,-17361.262,-17375.879,-17349.053,-17334.371,-17344.139,-17353.22,-17344.791,-17310.984,-17286.785,-17298.229,-17326.008,-17333.582,-17326.945,-17318.178,-17320.318,-17343.23,-17352.182
-17359.516,-17353.24,-17311.854,-17273.686,-17248.514,-17274.44,-17348.658,-17377.922,-17339.498,-17300.842,-17303.572,-17340.91,-17376.158,-17362.781,-17352.812,-17371.662,-17365.322,-17353.36,-17337.234,-17314.324,-17303.773,-17316.076,-17341.945,-17330.695,-17334.885
-17355.246,-17350.668,-17373.426,-17373.338,-17373.125,-17410.223,-17419.133,-17433.652,-17410.604,-17340.14,-17304.123,-17267.93,-17272.121,-17317.41,-17309.768,-17293.11,-17298.725,-17308.725,-17322.578,-17335.072,-17349.89,-17335.271,-17304.125,-17304.045,-17308.557
-17310.365,-17325.771,-17322.96,-17319.213,-17337.973,-17332.55,-17316.074,-17321.896,-17332.223,-17334.79,-17326.514,-17310.814,-17283.174,-17273.23,-17302.004,-17331.297,-17347.18,-17339.229,-17312.982,-17303.709,-17324.465,-17356.807,-17371.355,-17372.555,-17352.31
-17336.47,-17349.562,-17337.932,-17333.035,-17326.33,-17272.924,-17269.713,-17317.734,-17326.002,-17312.629,-17319.46,-17318.158,-17319.83,-17338.537,-17326.33,-17314.652,-17299.824,-17294.76,-17353.215,-17375.89,-17351.434,-17339.877,-17327.533,-17321.123,-17297.861
-17276.691,-17302.838,-17349.59,-17372.916,-17349.68,-17324.398,-17328.422,-17318.236,-17305.955,-17305.857,-17283.643,-17273.838,-17289.703,-17302.527,-17309.008,-17302.816,-17314.027,-17339.8,-17366.088,-17413.4,-17439.121,-17399.56,-17332.818,-17312.115,-17321.305
-17306.617,-17305.287,-17320.836,-17312.324,-17313.67,-17312.04,-17282.264,-17285.54,-17287.14,-17278.977,-17302.883,-17292.885,-17275.746,-17300.303,-17327.984,-17341.76,-17345.922,-17346.64,-17335.273,-17333.508,-17348.676,-17353.746,-17351.604,-17338.33,-17312.76
-17295.414,-17304.746,-17328.389,-17327.664,-17296.934,-17279.879,-17298.443,-17310.658,-17310.664,-17325.738,-17332.994,-17333.705,-17333.225,-17301.678,-17263.693,-17250.457,-17252.092,-17266.725,-17288.041,-17302.693,-17303.133,-17300.66,-17315.994,-17330.582,-17336.53
-17350.092,-17342.594,-17328.854,-17347.262,-17336.607,-17301.139,-17313.508,-17331.912,-17329.61,-17329.914,-17331.445,-17352.229,-17365.236,-17363.982,-17376.97,-17359.525,-17334.357,-17327.42,-17302.525,-17302.773,-17308.877,-17290.373,-17289.113,-17275.225,-17271.068
-17288.885,-17282.768,-17296.475,-17311.105,-17307.15,-17316.727,-17307.764,-17303.053,-17312.877,-17319.389,-17353.51,-17377.914,-17361.842,-17357.123,-17361.309,-17333.842,-17313.781,-17316.797,-17317.78,-17335.418,-17335.066,-17304.328,-17286.973,-17277.092,-17278.82
-17291.72,-17307.455,-17311.596,-17303.627,-17319.643,-17335.19,-17335.355,-17310.941,-17282.867,-17311.834,-17327.975,-17325.928,-17340.707,-17329.01,-17334.15,-17344.38,-17333.168,-17334.0,-17337.459,-17332.953,-17316.408,-17330.354,-17358.21,-17348.227,-17333.135
-17302.992,-17275.438,-17297.24,-17322.85,-17315.828,-17297.797,-17286.057,-17290.652,-17314.734,-17332.277,-17328.71,-17298.592,-17283.365,-17324.63,-17342.543,-17337.514,-17359.176,-17346.805,-17323.705,-17311.418,-17278.523,-17277.654,-17287.87,-17287.045,-17323.58
-17346.994,-17331.83,-17323.803,-17325.93,-17328.807,-17351.223,-17371.367,-17344.738,-17323.64,-17319.174,-17312.195,-17313.46,-17303.57,-17317.996,-17332.877,-17336.803,-17337.12,-17287.555,-17275.977,-17318.205,-17320.992,-17272.277,-17244.129,-17276.975,-17304.615
-17325.396,-17335.379,-17365.348,-17411.139,-17362.576,-17318.465,-17318.521,-17315.94,-17356.898,-17372.01,-17347.926,-17328.0,-17322.564,-17341.904,-17343.58,-17353.527,-17380.049,-17364.412,-17345.547,-17342.82,-17318.77,-17304.146,-17296.055,-17283.904,-17291.271
-17297.436,-17301.457,-17289.87,-17303.836,-17344.479,-17316.916,-17303.1,-17314.547,-17305.008,-17321.81,-17317.625,-17313.955,-17313.045,-17292.922,-17285.307,-17267.572,-17281.621,-17315.887,-17332.463,-17338.432,-17322.924,-17326.973,-17333.398,-17343.072,-17393.922
-17437.744,-17441.285,-17408.045,-17375.4,-17361.383,-17354.947,-17343.23,-17293.643,-17288.027,-17329.475,-17304.205,-17300.896,-17326.707,-17302.693,-17284.662,-17262.818,-17264.367,-17300.45,-17324.795,-17362.1,-17389.277,-17367.133,-17315.105,-17303.906,-17325.967
-17347.102,-17367.156,-17337.65,-17316.496,-17334.854,-17345.826,-17353.53,-17345.05,-17326.5,-17302.592,-17295.727,-17314.945,-17346.098,-17371.076,-17338.182,-17318.037,-17345.852,-17341.22,-17316.57,-17308.146,-17314.021,-17319.912,-17326.031,-17315.623,-17304.521
-17317.557,-17305.113,-17339.72,-17429.447,-17441.566,-17398.166,-17356.773,-17337.576,-17339.215,-17348.389,-17354.629,-17319.547,-17272.29,-17257.197,-17277.232,-17300.217,-17309.586,-17338.557,-17352.316,-17344.656,-17347.08,-17328.785,-17319.068,-17327.664,-17309.914
-17298.182,-17295.99,-17279.93,-17273.947,-17271.658,-17271.852,-17292.607,-17319.78,-17325.643,-17317.938,-17337.422,-17365.34,-17381.537,-17391.83,-17360.46,-17323.674,-17337.176,-17371.596,-17397.412,-17398.691,-17385.195,-17374.01,-17350.572,-17324.86,-17320.729
-17322.578,-17313.389,-17305.602,-17312.066,-17332.432,-17346.74,-17351.453,-17351.951,-17335.6,-17334.64,-17344.87,-17325.545,-17310.316,-17310.494,-17312.977,-17313.7,-17304.756,-17303.11,-17301.111,-17298.555,-17299.785,-17291.18,-17306.113,-17342.15,-17357.93
-17388.291,-17427.621,-17409.219,-17382.748,-17375.096,-17339.2,-17330.488,-17338.219,-17310.064,-17315.322,-17341.873,-17336.47,-17327.1,-17318.87,-17311.752,-17314.385,-17317.146,-17321.078,-17327.117,-17326.898,-17325.541,-17329.72,-17327.652,-17311.312,-17305.7
-17313.176,-17325.824,-17369.438,-17393.736,-17390.025,-17403.666,-17385.238,-17366.32,-17364.39,-17331.727,-17319.016,-17316.438,-17287.05,-17275.85,-17291.838,-17303.291,-17297.9,-17291.752,-17304.188,-17317.066,-17324.092,-17335.71,-17350.562,-17387.78,-17396.283
-17360.637,-17346.82,-17325.582,-17337.361,-17399.648,-17407.094,-17401.016,-17403.994,-17362.062,-17331.219,-17332.275,-17327.855,-17330.637,-17319.506,-17298.781,-17331.666,-17345.836,-17320.41,-17330.258,-17325.242,-17308.053,-17300.693,-17298.297,-17314.889,-17317.85
-17335.57,-17350.174,-17327.557,-17311.98,-17310.686,-17329.014,-17325.104,-17294.28,-17303.568,-17320.197,-17320.795,-17320.283,-17294.012,-17293.15,-17347.672,-17357.205,-17327.686,-17327.22,-17317.959,-17313.842,-17332.904,-17344.738,-17363.977,-17366.184,-17340.027
-17332.312,-17352.123,-17371.562,-17359.781,-17342.68,-17334.684,-17312.625,-17321.395,-17357.143,-17361.432,-17358.021,-17377.49,-17385.277,-17351.742,-17340.354,-17355.488,-17330.873,-17333.752,-17335.477,-17297.623,-17344.266,-17380.973,-17350.25,-17349.254,-17336.098
-17348.492,-17374.863,-17382.24,-17420.111,-17384.8,-17317.318,-17307.666,-17295.05,-17314.486,-17353.441,-17373.66,-17383.352,-17371.127,-17368.682,-17358.256,-17331.363,-17310.799,-17290.367,-17304.734,-17354.469,-17403.535,-17412.314,-17386.205,-17371.406,-17344.283
-17329.502,-17331.203,-17308.97,-17321.234,-17328.117,-17302.27,-17310.605,-17306.459,-17308.393,-17350.848,-17367.111,-17365.32,-17354.648,-17332.67,-17328.254,-17322.896,-17315.979,-17312.143,-17295.307,-17295.963,-17321.127,-17351.465,-17376.635,-17383.332,-17380.838
-17345.174,-17305.932,-17346.352,-17403.309,-17397.645,-17378.93,-17362.012,-17320.6,-17321.516,-17366.861,-17361.535,-17318.645,-17297.982,-17293.105,-17281.318,-17272.951,-17264.125,-17261.11,-17264.963,-17278.129,-17346.883,-17373.38,-17329.852,-17329.557,-17334.912
-17342.684,-17388.154,-17444.863,-17454.393,-17399.1,-17345.25,-17290.775,-17300.758,-17346.215,-17319.008,-17323.617,-17314.848,-17271.885,-17294.918,-17308.541,-17311.008,-17322.338,-17322.547,-17320.732,-17327.52,-17352.346,-17315.23,-17248.25,-17266.707,-17323.387
-17338.762,-17338.506,-17349.834,-17348.068,-17376.07,-17421.355,-17403.023,-17382.479,-17391.676,-17360.283,-17326.268,-17324.73,-17302.436,-17297.506,-17310.355,-17289.695,-17274.352,-17260.646,-17272.637,-17324.479,-17345.754,-17333.684,-17319.814,-17320.568,-17315.861
-17310.39,-17323.627,-17325.65,-17310.312,-17285.809,-17291.506,-17305.336,-17298.113,-17321.805,-17321.885,-17306.768,-17348.686,-17375.281,-17328.158,-17277.945,-17320.988,-17356.568,-17322.26,-17327.607,-17339.293,-17343.627,-17361.143,-17356.846,-17346.531,-17329.068
-17346.5,-17390.035,-17381.984,-17334.594,-17305.883,-17317.314,-17316.527,-17300.117,-17274.896,-17223.154,-17223.176,-17269.863,-17279.281,-17263.93,-17253.018,-17310.48,-17439.54,-17471.676,-17399.045,-17347.355,-17314.586,-17296.186,-17284.807,-17282.07,-17296.35
-17306.678,-17342.555,-17370.824,-17357.842,-17334.963,-17304.035,-17292.436,-17303.44,-17316.264,-17311.328,-17282.814,-17307.365,-17356.082,-17337.771,-17302.223,-17295.678,-17325.352,-17347.06,-17304.06,-17282.688,-17315.482,-17316.273,-17290.188,-17276.275,-17268.598
-17281.887,-17309.5,-17321.908,-17317.496,-17287.5,-17246.28,-17222.367,-17218.469,-17226.123,-17252.451,-17300.02,-17291.293,-17263.531,-17319.672,-17363.309,-17375.06,-17386.99,-17349.229,-17327.22,-17333.877,-17344.154,-17348.143,-17305.414,-17288.473,-17301.379
-17301.957,-17314.195,-17293.754,-17267.086,-17279.293,-17274.756,-17268.639,-17291.086,-17303.584,-17294.525,-17306.73,-17353.092,-17353.219,-17298.754,-17270.455,-17275.545,-17284.516,-17283.475,-17288.041,-17289.691,-17283.824,-17293.557,-17277.84,-17259.32,-17297.434
-17365.377,-17404.857,-17372.994,-17325.555,-17315.742,-17319.941,-17308.936,-17267.469,-17256.178,-17271.594,-17249.898,-17261.006,-17295.135,-17303.516,-17332.758,-17324.977,-17295.969,-17301.64,-17298.66,-17300.83,-17296.592,-17288.088,-17278.264,-17269.607,-17288.451
-17273.514,-17242.379,-17246.55,-17278.629,-17328.865,-17359.562,-17362.443,-17349.75,-17332.756,-17312.775,-17324.371,-17356.23,-17329.725,-17294.521,-17303.105,-17317.549,-17281.684,-17222.592,-17228.453,-17255.1,-17296.176,-17342.576,-17329.264,-17319.979,-17306.354
-17282.762,-17285.97,-17286.44,-17311.379,-17309.354,-17272.703,-17272.756,-17269.229,-17271.73,-17284.059,-17280.309,-17279.1,-17281.58,-17285.834,-17292.61,-17323.29,-17333.758,-17292.762,-17262.332,-17247.408,-17251.758,-17282.555,-17323.232,-17359.615,-17356.87
-17334.498,-17308.045,-17277.287,-17271.678,-17283.932,-17315.607,-17356.096,-17364.504,-17337.92,-17314.266,-17330.697,-17336.77,-17279.96,-17235.67,-17277.018,-17325.875,-17313.525,-17298.639,-17285.787,-17262.412,-17264.479,-17273.363,-17279.191,-17288.398,-17288.055
-17298.85,-17331.912,-17332.836,-17318.465,-17353.982,-17379.863,-17370.96,-17341.303,-17300.84,-17300.713,-17293.28,-17294.3,-17328.238,-17340.57,-17356.959,-17346.717,-17310.643,-17292.334,-17293.344,-17295.361,-17260.793,-17259.12,-17294.154,-17326.324,-17350.92
-17329.139,-17313.94,-17296.775,-17283.182,-17305.805,-17272.635,-17232.855,-17242.916,-17262.996,-17305.633,-17306.078,-17257.357,-17267.332,-17324.125,-17343.193,-17326.686,-17322.129,-17326.166,-17323.533,-17293.666,-17250.158,-17250.805,-17255.518,-17271.193,-17335.525
-17363.072,-17365.635,-17381.188,-17361.824,-17311.523,-17270.664,-17260.623,-17285.979,-17318.398,-17293.93,-17272.5,-17290.006,-17281.7,-17287.295,-17275.895,-17258.295,-17281.928,-17292.322,-17339.75,-17383.021,-17354.654,-17307.043,-17263.846,-17288.709,-17363.85
-17383.094,-17337.861,-17302.912,-17325.553,-17333.037,-17311.09,-17319.16,-17300.03,-17289.693,-17343.355,-17351.54,-17322.678,-17297.64,-17272.62,-17298.75,-17304.06,-17264.377,-17283.873,-17317.057,-17323.6,-17341.736,-17326.482,-17314.445,-17332.73,-17308.885
-17306.658,-17343.38,-17336.29,-17322.254,-17329.74,-17338.85,-17338.637,-17332.445,-17356.178,-17362.521,-17321.223,-17309.154,-17307.967,-17291.117,-17322.496,-17343.879,-17303.48,-17325.246,-17395.93,-17399.656,-17388.742,-17365.125,-17300.691,-17287.691,-17285.414
-17250.889,-17264.566,-17276.668,-17267.447,-17274.43,-17272.967,-17298.672,-17326.244,-17320.705,-17318.727,-17314.223,-17309.676,-17295.674,-17266.49,-17245.992,-17246.469,-17284.393,-17346.117,-17385.057,-17366.824,-17337.232,-17345.5,-17334.922,-17300.756,-17307.982
-17329.414,-17325.273,-17332.871,-17341.576,-17312.506,-17274.578,-17264.7,-17308.957,-17357.768,-17356.86,-17350.512,-17325.773,-17283.473,-17291.592,-17341.535,-17389.992,-17408.766,-17374.799,-17295.256,-17246.281,-17253.414,-17259.229,-17272.588,-17286.475,-17288.46
-17295.752,-17293.705,-17296.824,-17303.688,-17299.28,-17280.705,-17278.979,-17299.082,-17275.566,-17258.246,-17288.883,-17309.463,-17304.264,-17297.46,-17337.617,-17376.238,-17354.232,-17360.633,-17387.1,-17349.018,-17313.354,-17306.121,-17303.074,-17338.723,-17341.93
-17301.912,-17294.408,-17263.926,-17238.504,-17275.068,-17292.176,-17295.918,-17310.053,-17299.057,-17296.68,-17301.146,-17297.941,-17302.098,-17282.904,-17279.4,-17317.035,-17329.11,-17325.227,-17325.002,-17313.383,-17303.174,-17295.645,-17281.451,-17253.39,-17241.5
-17249.875,-17239.754,-17240.47,-17267.115,-17309.875,-17376.422,-17433.986,-17445.188,-17409.377,-17380.447,-17366.688,-17332.39,-17322.172,-17331.299,-17314.557,-17291.545,-17254.69,-17233.023,-17271.668,-17306.553,-17310.941,-17313.127,-17302.988,-17295.125,-17299.266
-17294.316,-17287.566,-17294.83,-17306.756,-17315.848,-17304.43,-17260.336,-17228.395,-17240.184,-17290.715,-17336.676,-17329.56,-17325.139,-17362.506,-17405.506,-17428.184,-17407.223,-17373.383,-17351.338,-17324.482,-17302.785,-17265.324,-17234.61,-17255.137,-17271.084
-17269.285,-17275.867,-17291.4,-17319.56,-17308.43,-17282.125,-17302.197,-17311.758,-17308.201,-17297.31,-17270.922,-17294.023,-17307.938,-17267.758,-17264.78,-17278.889,-17278.54,-17306.207,-17326.785,-17322.69,-17323.719,-17340.436,-17369.625,-17359.525,-17329.146
-17329.021,-17336.477,-17355.059,-17373.957,-17398.486,-17396.393,-17336.982,-17330.846,-17345.89,-17309.445,-17266.215,-17242.969,-17265.738,-17267.09,-17254.771,-17283.031,-17299.818,-17304.105,-17296.168,-17284.97,-17268.459,-17255.512,-17270.992,-17299.459,-17322.771
-17301.139,-17301.338,-17315.834,-17299.87,-17317.197,-17304.666,-17288.406,-17300.557,-17290.73,-17309.805,-17339.938,-17358.613,-17361.428,-17360.137,-17361.506,-17355.568,-17400.47,-17403.58,-17327.936,-17282.715,-17249.777,-17231.057,-17229.975,-17237.266,-17256.893
-17269.11,-17296.602,-17317.23,-17320.871,-17317.229,-17311.334,-17323.482,-17314.84,-17295.564,-17291.223,-17282.836,-17277.838,-17275.758,-17287.115,-17311.156,-17315.9,-17305.455,-17294.787,-17309.18,-17355.766,-17357.588,-17327.178,-17335.332,-17337.846,-17322.75
-17293.953,-17254.814,-17260.904,-17286.092,-17301.387,-17316.643,-17300.71,-17262.572,-17252.768,-17263.322,-17265.955,-17300.242,-17358.059,-17376.797,-17359.635,-17327.322,-17313.943,-17311.53,-17306.992,-17316.396,-17293.62,-17284.887,-17305.574,-17286.871,-17271.041
-17280.338,-17320.586,-17358.148,-17336.8,-17298.992,-17297.09,-17327.533,-17324.219,-17290.334,-17275.94,-17307.768,-17370.27,-17376.46,-17363.383,-17353.99,-17299.928,-17272.652,-17282.744,-17285.275,-17307.723,-17344.775,-17344.496,-17313.084,-17307.15,-17326.852
-17324.818,-17320.496,-17348.086,-17343.443,-17299.734,-17276.488,-17267.395,-17282.602,-17298.455,-17264.008,-17237.572,-17259.451,-17299.758,-17346.143,-17355.607,-17320.469,-17292.287,-17279.986,-17285.115,-17300.484,-17310.94,-17307.299,-17288.387,-17281.438,-17283.428
-17289.781,-17300.33,-17285.717,-17275.285,-17298.3,-17305.367,-17293.043,-17307.254,-17341.541,-17356.45,-17351.143,-17328.324,-17283.662,-17280.688,-17300.984,-17293.584,-17305.203,-17310.213,-17278.71,-17251.697,-17301.598,-17371.807,-17346.346,-17348.826,-17371.434
-17311.574,-17277.477,-17269.498,-17242.275,-17227.498,-17228.443,-17230.107,-17230.012,-17256.123,-17280.812,-17271.219,-17265.951,-17276.758,-17290.572,-17334.965,-17377.094,-17367.443,-17337.582,-17283.002,-17249.416,-17281.654,-17306.133,-17313.602,-17313.568,-17294.477
-17282.832,-17272.98,-17268.057,-17304.9,-17338.775,-17315.418,-17306.045,-17319.018,-17289.506,-17247.645,-17223.566,-17230.643,-17257.355,-17258.1,-17266.213,-17291.705,-17291.533,-17267.984,-17216.145,-17191.771,-17229.604,-17251.182,-17277.64,-17323.26,-17318.703
-17288.57,-17281.01,-17284.355,-17260.129,-17234.768,-17250.896,-17264.545,-17278.617,-17323.225,-17342.543,-17318.592,-17304.432,-17273.793,-17222.225,-17237.492,-17277.83,-17291.36,-17310.955,-17311.076,-17293.068,-17275.846,-17270.133,-17269.68,-17267.895,-17308.234
-17330.498,-17274.562,-17207.213,-17189.328,-17204.385,-17217.666,-17252.04,-17268.053,-17254.912,-17267.19,-17271.332,-17276.82,-17288.428,-17283.412,-17278.545,-17264.139,-17271.842,-17300.12,-17310.139,-17310.46,-17265.5,-17204.58,-17227.1,-17283.895,-17300.697
-17302.03,-17300.549,-17291.22,-17275.998,-17273.055,-17269.979,-17257.514,-17258.842,-17247.93,-17240.273,-17235.746,-17229.283,-17249.885,-17222.48,-17195.646,-17239.799,-17264.854,-17274.24,-17257.709,-17219.467,-17242.387,-17273.55,-17284.734,-17298.28,-17295.84
-17305.3,-17296.27,-17253.363,-17217.947,-17188.547,-17215.896,-17273.45,-17278.576,-17298.88,-17338.562,-17328.742,-17281.729,-17212.91,-17194.176,-17215.184,-17199.656,-17223.887,-17279.219,-17336.432,-17376.592,-17302.514,-17228.547,-17234.615,-17239.156,-17250.453
-17258.84,-17245.791,-17243.537,-17240.959,-17197.355,-17166.365,-17216.545,-17248.1,-17214.059,-17205.256,-17192.86,-17174.764,-17202.49,-17237.48,-17294.36,-17318.28,-17286.709,-17289.28,-17269.324,-17256.346,-17298.49,-17293.225,-17251.275,-17219.16,-17203.85
-17200.055,-17205.877,-17267.197,-17325.707,-17315.426,-17300.146,-17289.994,-17275.71,-17269.123,-17235.89,-17219.1,-17219.105,-17189.434,-17194.14,-17212.62,-17197.238,-17181.797,-17195.516,-17247.62,-17299.617,-17328.646,-17307.8,-17282.348,-17296.875,-17251.037
-17190.357,-17203.709,-17243.408,-17269.08,-17258.627,-17258.424,-17274.766,-17266.668,-17256.908,-17232.193,-17208.51,-17234.574,-17276.588,-17293.963,-17296.908,-17298.842,-17283.664,-17254.598,-17238.807,-17233.129,-17230.152,-17223.918,-17215.525,-17220.975,-17240.83
-17269.303,-17268.35,-17227.447,-17206.451,-17220.87,-17234.799,-17217.744,-17202.11,-17241.805,-17294.248,-17291.826,-17260.334,-17264.059,-17276.805,-17272.979,-17275.113,-17262.988,-17252.547,-17227.098,-17182.697,-17190.355,-17189.846,-17181.203,-17210.14,-17209.756
-17209.227,-17208.852,-17195.018,-17195.986,-17196.27,-17225.268,-17235.771,-17218.318,-17227.885,-17239.396,-17256.982,-17254.963,-17236.4,-17237.764,-17241.152,-17242.797,-17225.854,-17208.832,-17240.977,-17297.605,-17309.922,-17272.889,-17239.031,-17221.266,-17205.621
-17202.49,-17219.816,-17218.904,-17199.031,-17214.07,-17250.557,-17263.469,-17259.86,-17271.812,-17275.105,-17243.234,-17232.06,-17240.875,-17247.611,-17272.428,-17262.678,-17238.465,-17258.576,-17275.078,-17284.861,-17292.291,-17272.822,-17238.764,-17196.303,-17179.074
-17215.17,-17251.379,-17252.05,-17244.064,-17226.512,-17218.252,-17237.799,-17232.43,-17202.248,-17177.021,-17178.588,-17211.463,-17234.334,-17274.309,-17326.01,-17334.36,-17311.814,-17274.799,-17242.574,-17207.053,-17198.066,-17251.219,-17282.129,-17286.055,-17300.973
-17295.748,-17277.875,-17250.83,-17235.14,-17247.541,-17249.066,-17243.756,-17242.4,-17219.525,-17192.592,-17192.715,-17200.549,-17212.197,-17227.656,-17216.879,-17195.393,-17204.33,-17242.295,-17266.674,-17263.031,-17250.28,-17244.629,-17257.594,-17272.467,-17270.148
-17247.555,-17233.234,-17239.441,-17245.465,-17252.75,-17244.941,-17224.34,-17212.275,-17232.416,-17278.371,-17275.102,-17251.123,-17246.719,-17220.512,-17227.94,-17265.986,-17262.535,-17250.537,-17219.953,-17174.75,-17170.074,-17182.982,-17212.574,-17253.031,-17281.71
-17305.844,-17315.455,-17321.959,-17336.346,-17338.049,-17301.375,-17257.557,-17235.027,-17209.568,-17203.088,-17227.008,-17256.021,-17259.223,-17243.58,-17243.62,-17239.87,-17237.469,-17251.682,-17255.227,-17229.36,-17202.81,-17203.818,-17217.89,-17227.53,-17206.889
-17200.217,-17239.943,-17257.188,-17263.898,-17284.053,-17271.797,-17255.84,-17287.064,-17309.436,-17291.982,-17296.455,-17302.62,-17286.121,-17277.428,-17240.729,-17203.475,-17213.936,-17237.885,-17284.84,-17323.326,-17285.223,-17224.674,-17208.418,-17212.707,-17231.021
-17256.092,-17240.1,-17226.521,-17247.342,-17251.688,-17245.96,-17250.96,-17248.094,-17228.6,-17204.705,-17169.518,-17158.293,-17193.904,-17232.342,-17284.574,-17300.578,-17266.91,-17276.318,-17290.537,-17278.207,-17267.014,-17239.316,-17214.984,-17236.832,-17286.62
-17312.428,-17295.271,-17239.008,-17195.594,-17192.03,-17186.2,-17191.139,-17211.559,-17225.154,-17254.803,-17263.557,-17212.262,-17200.555,-17229.996,-17206.064,-17193.201,-17208.656,-17214.275,-17225.174,-17242.504,-17273.736,-17262.164,-17231.227,-17246.508,-17259.477
-17251.973,-17236.518,-17242.36,-17249.406,-17239.666,-17255.385,-17237.898,-17206.28,-17224.625,-17223.438,-17226.58,-17259.45,-17257.719,-17240.95,-17244.135,-17263.732,-17267.424,-17250.668,-17247.031,-17244.887,-17243.562,-17242.371,-17235.1,-17229.264,-17238.51
-17262.936,-17260.318,-17251.824,-17231.08,-17201.17,-17245.975,-17302.457,-17294.465,-17248.236,-17223.719,-17244.0,-17245.14,-17245.428,-17249.572,-17231.564,-17231.281,-17227.777,-17228.965,-17247.986,-17254.023,-17255.469,-17238.559,-17219.373,-17227.818,-17241.27
-17248.875,-17250.146,-17257.213,-17270.316,-17267.697,-17256.49,-17262.98,-17296.455,-17315.537,-17301.537,-17281.965,-17245.715,-17217.959,-17232.77,-17235.35,-17215.846,-17223.809,-17231.023,-17209.29,-17207.975,-17228.834,-17243.889,-17249.959,-17245.438,-17274.254
-17327.82,-17342.98,-17320.87,-17308.486,-17303.764,-17236.64,-17188.312,-17234.334,-17249.166,-17242.479,-17267.012,-17270.291,-17261.076,-17234.045,-17219.19,-17243.209,-17260.389,-17283.203,-17270.684,-17226.188,-17237.568,-17251.973,-17240.68,-17227.336,-17197.916
-17178.852,-17186.215,-17209.463,-17228.305,-17248.482,-17270.38,-17270.611,-17262.182,-17252.066,-17234.889,-17219.965,-17250.264,-17286.844,-17281.094,-17285.844,-17260.879,-17221.865,-17228.035,-17250.184,-17249.977,-17200.465,-17196.803,-17200.432,-17204.148,-17307.965
-17330.44,-17286.43,-17283.73,-17239.977,-17224.363,-17241.293,-17234.39,-17203.842,-17171.365,-17216.24,-17271.666,-17271.248,-17259.322,-17231.943,-17220.615,-17231.434,-17242.867,-17268.32,-17281.248,-17300.154,-17325.498,-17305.45,-17251.111,-17205.443,-17193.047
-17184.37,-17185.947,-17211.139,-17223.451,-17251.584,-17280.146,-17270.549,-17254.87,-17249.78,-17271.668,-17292.271,-17293.816,-17287.838,-17250.477,-17261.988,-17322.729,-17305.22,-17261.139,-17241.559,-17214.154,-17203.092,-17211.74,-17233.658,-17236.688,-17225.014
-17254.406,-17286.516,-17291.553,-17297.545,-17305.984,-17295.117,-17260.758,-17241.871,-17247.248,-17257.059,-17246.96,-17209.984,-17201.78,-17227.588,-17256.71,-17275.363,-17271.768,-17263.61,-17238.611,-17219.914,-17211.2,-17200.451,-17236.486,-17265.432,-17289.06
-17312.6,-17269.676,-17244.559,-17255.918,-17266.67,-17297.865,-17317.9,-17310.549,-17289.59,-17293.88,-17317.463,-17315.027,-17292.713,-17248.02,-17207.658,-17208.346,-17235.1,-17251.861,-17224.34,-17200.883,-17213.842,-17223.45,-17234.47,-17239.85,-17238.291
-17246.793,-17237.53,-17222.277,-17214.293,-17205.383,-17217.744,-17220.646,-17210.736,-17238.66,-17276.459,-17297.707,-17303.9,-17296.346,-17279.592,-17230.238,-17211.266,-17247.406,-17261.664,-17318.512,-17385.209,-17329.541,-17275.912,-17289.248,-17260.959,-17245.707
-17283.465,-17268.73,-17254.49,-17281.725,-17258.229,-17239.463,-17230.076,-17207.389,-17237.633,-17256.553,-17223.594,-17187.188,-17207.236,-17261.654,-17253.629,-17251.75,-17278.832,-17250.426,-17236.459,-17277.35,-17312.566,-17316.922,-17294.113,-17276.445,-17263.781
-17251.129,-17263.598,-17271.498,-17270.135,-17257.396,-17187.328,-17155.758,-17202.89,-17207.01,-17195.705,-17214.344,-17241.924,-17274.336,-17272.729,-17263.959,-17253.469,-17230.865,-17242.81,-17277.783,-17308.396,-17306.87,-17285.086,-17267.94,-17236.771,-17227.861
-17237.643,-17244.758,-17264.525,-17245.26,-17228.209,-17271.262,-17292.645,-17271.07,-17227.234,-17194.78,-17203.396,-17214.24,-17244.783,-17277.342,-17271.203,-17270.285,-17281.268,-17276.506,-17269.666,-17305.22,-17329.848,-17300.842,-17279.184,-17259.693,-17254.0
-17266.67,-17291.316,-17328.559,-17293.03,-17243.602,-17234.691,-17212.715,-17220.56,-17218.637,-17226.355,-17283.016,-17287.605,-17292.883,-17304.322,-17272.455,-17267.14,-17272.912,-17259.777,-17240.49,-17249.395,-17263.705,-17270.664,-17321.6,-17328.686,-17294.586
-17295.48,-17280.182,-17242.973,-17225.814,-17268.068,-17317.041,-17313.072,-17291.293,-17262.146,-17242.488,-17240.936,-17250.127,-17262.793,-17265.09,-17250.857,-17229.04,-17240.2,-17253.06,-17250.498,-17267.914,-17268.502,-17260.979,-17276.867,-17281.467,-17269.396
-17250.646,-17214.436,-17217.996,-17290.432,-17336.895,-17328.24,-17292.598,-17249.688,-17269.508,-17345.62,-17397.229,-17403.451,-17351.111,-17278.08,-17246.266,-17231.393,-17270.549,-17297.104,-17235.275,-17234.447,-17268.857,-17281.836,-17273.875,-17220.43,-17231.346
-17246.268,-17233.846,-17257.406,-17257.775,-17260.676,-17256.496,-17254.674,-17267.47,-17254.938,-17268.758,-17274.553,-17258.318,-17260.322,-17266.361,-17276.334,-17269.326,-17263.064,-17257.764,-17242.758,-17240.676,-17227.688,-17220.908,-17251.242,-17295.285,-17310.133
