SampleData
0.0,7355.9434,16440.074,-4175.7856,-24113.025,-7258.3257,-9565.091,-17059.725,-5718.0815,-14025.062,-11363.161,-8825.756,-15263.328,-9033.849,-14399.179,-12890.494,-12171.129,-15769.182,-11793.312,-15618.235,-13187.8955,-13526.011,-14303.996,-11725.885,-13846.16,-11283.602,-12244.224,-11671.036,-10849.459,-12076.345,-10687.608,-12146.833,-11633.575,-12183.56,-12897.007,-12566.299,-13721.405,-13249.228,-13882.157,-13792.545,-13568.254,-13788.499,-13096.924,-13192.739,-12572.449,-12330.92,-12098.009,-11658.82,-11748.882,-11466.897,-11675.49,-11756.207,-11963.74,-12362.283,-12559.734,-13010.846,-13184.888,-13425.71,-13554.058,-13542.399,-13568.612,-13363.41,-13221.266,-12942.296,-12666.395,-12415.796,-12118.857,-11962.102,-11793.003,-11768.546,-11834.099,-11952.484,-12158.721,-12354.654,-12610.692,-12854.045,-13112.957,-13311.307,-13380.173,-13409.157,-13345.522,-13235.895,-13080.573,-12876.246,-12674.85,-12468.817,-12303.648,-12174.367,-12067.809,-12017.794,-12039.08,-12114.915,-12267.947,-12513.828,-12728.492,-12862.348,-12997.174,-13127.773,-13206.222,-13227.821,-13176.674,-13082.509,-12974.527,-12811.787,-12622.303,-12446.678,-12314.282,-12230.809,-12154.009,-12128.792,-12172.841,-12257.328,-12353.831,-12467.171,-12652.694,-12822.985,-12920.37,-13010.65,-13098.67,-13151.231,-13126.619,-13036.269,-12935.576,-12845.29,-12750.722,-12635.491,-12498.013,-12374.964,-12324.202,-12297.21,-12272.799,-12313.299,-12396.8545,-12498.273,-12612.998,-12736.269,-12847.705,-12915.773,-12972.384,-13011.488,-12993.064,-12933.36,-12863.547,-12782.914,-12676.479,-12569.374,-12511.953,-12488.446,-12435.211,-12388.832,-12385.843,-12394.73,-12448.78,-12555.838,-12667.353,-12769.195,-12875.074,-12936.639,-12906.655,-12894.335,-12921.616,-12883.382,-12781.257,-12679.307,-12650.767,-12657.95,-12626.795,-12604.214,-12612.33,-12572.091,-12482.958,-12512.436,-12610.988,-12642.586,-12674.39,-12675.663,-12672.47,-12724.012,-12784.938,-12858.601,-12886.654,-12837.209,-12755.087,-12678.199,-12654.659,-12665.343,-12634.745,-12578.659,-12541.981,-12562.826,-12630.726,-12618.744,-12605.278,-12647.45,-12644.353,-12640.333,-12644.883,-12667.754,-12669.243,-12647.29,-12668.25,-12664.465,-12685.691,-12699.402,-12642.791,-12616.302,-12600.891,-12588.884,-12589.677,-12587.061,-12597.656,-12622.684,-12669.431,-12697.493,-12711.456,-12708.043,-12634.604,-12575.548,-12564.7705,-12549.31,-12577.5,-12639.206,-12675.615,-12687.734,-12662.721,-12660.897,-12690.382,-12658.755,-12649.147,-12689.226,-12701.956,-12712.569,-12665.637,-12565.729,-12521.663,-12536.749,-12571.594,-12574.202,-12533.041,-12487.774,-12489.614,-12566.784,-12639.81,-12663.521,-12683.386,-12673.835,-12630.0205,-12604.902,-12584.468,-12591.537,-12620.995,-12610.912,-12597.895,-12588.532,-12582.897,-12593.72,-12587.237,-12565.095,-12528.162,-12511.665,-12518.071,-12515.124,-12520.822,-12531.477,-12550.796,-12575.889,-12603.739,-12610.42,-12609.601,-12655.14,-12681.563,-12675.805,-12661.49,-12629.111,-12621.864,-12623.534,-12588.647,-12520.429,-12497.676,-12544.573,-12559.368,-12534.507,-12541.466,-12571.154,-12582.032,-12593.719,-12617.256,-12635.041,-12654.741,-12672.855,-12677.19,-12658.916,-12638.396,-12614.85,-12562.006,-12513.95,-12498.065,-12505.151,-12505.424,-12512.318,-12543.797,-12539.737,-12530.906,-12561.039,-12604.565,-12664.33,-12692.368,-12689.247,-12703.134,-12714.777,-12718.563,-12708.915,-12695.384,-12678.9375,-12637.307,-12598.485,-12557.539,-12497.99,-12456.499,-12475.445,-12520.872,-12510.9375,-12498.521,-12530.394,-12566.739,-12630.014,-12687.286,-12686.601,-12680.94,-12706.718,-12716.483,-12686.152,-12637.76,-12582.3545,-12568.611,-12591.559,-12592.355,-12579.121,-12557.514,-12535.394,-12528.624,-12540.825,-12564.927,-12573.34,-12578.288,-12612.041,-12662.808,-12691.566,-12711.789,-12724.7295,-12687.97,-12641.328,-12615.989,-12606.34,-12614.11,-12607.543,-12575.822,-12528.692,-12499.5205,-12499.412,-12504.911,-12522.6,-12538.985,-12570.642,-12629.444,-12653.522,-12669.587,-12717.516,-12736.955,-12722.992,-12697.83,-12663.998,-12634.599,-12600.946,-12581.749,-12563.547,-12519.963,-12509.088,-12562.822,-12641.662,-12671.592,-12624.829,-12581.846,-12605.044,-12653.403,-12677.61,-12686.06,-12689.597,-12689.014,-12685.895,-12680.527,-12684.081,-12683.582,-12664.313,-12630.857,-12589.128,-12549.739,-12511.266,-12485.934,-12473.379,-12472.457,-12516.567,-12562.104,-12564.207,-12581.94,-12635.6045,-12682.771,-12699.156,-12693.658,-12691.489,-12685.723,-12672.668,-12679.103,-12702.626,-12690.606,-12616.258,-12558.479,-12563.136,-12587.843,-12604.983,-12571.532,-12528.692,-12567.7295,-12644.638,-12718.125,-12745.72,-12680.192,-12640.136,-12669.198,-12682.829,-12685.61,-12675.33,-12649.214,-12626.129,-12597.008,-12566.448,-12542.248,-12527.943,-12512.888,-12520.878,-12548.526,-12548.927,-12559.169,-12585.247,-12605.978,-12641.122,-12667.369,-12673.047,-12680.647,-12687.485,-12675.296,-12666.308,-12673.151,-12664.078,-12646.15,-12628.248,-12611.333,-12603.625,-12580.992,-12546.517,-12527.34,-12526.166,-12555.926,-12624.161,-12690.414,-12717.274,-12703.819,-12670.031,-12649.314,-12650.074,-12647.975,-12640.74,-12639.555,-12626.687,-12611.859,-12604.565,-12589.123,-12580.015,-12573.606,-12561.106,-12552.814,-12564.213,-12585.812,-12596.035,-12607.863,-12624.672,-12658.116,-12677.855,-12662.514,-12665.015,-12676.415,-12697.552,-12729.873,-12734.043,-12707.647,-12628.875,-12545.975,-12542.718,-12568.256,-12565.014,-12542.296,-12540.084,-12591.089,-12635.539,-12632.453,-12612.996,-12602.672,-12615.3125,-12619.096,-12610.9795,-12614.543,-12613.651,-12611.616,-12614.096,-12616.259,-12603.753,-12580.0,-12568.161,-12561.574,-12559.969,-12567.791,-12591.645,-12628.126,-12634.492,-12604.09,-12606.903,-12660.315,-12679.19,-12650.414,-12626.634,-12632.991,-12679.979,-12700.762,-12670.119,-12659.547,-12659.415,-12634.196,-12594.897,-12566.296,-12583.569,-12622.178,-12638.957,-12644.744,-12635.847,-12603.401,-12585.533,-12599.562,-12609.754,-12612.654,-12634.577,-12643.511,-12623.256,-12614.778,-12614.221,-12608.261,-12613.407,-12643.1875,-12676.773,-12663.276,-12624.75,-12602.371,-12587.731,-12578.888,-12566.449,-12573.074,-12609.167,-12630.429,-12634.139,-12613.974,-12588.58,-12618.921,-12661.229,-12658.184,-12643.493,-12645.62,-12653.299,-12632.583,-12589.301,-12588.573,-12610.403,-12598.02,-12595.35,-12596.488,-12580.954,-12588.087,-12593.8955,-12599.626,-12600.139,-12587.7,-12605.586,-12617.641,-12619.969,-12636.1455,-12635.948,-12620.797,-12609.903,-12590.234,-12543.226,-12528.86,-12558.757,-12579.984,-12592.185,-12588.166,-12583.781,-12590.991,-12598.31,-12596.09,-12581.747,-12582.844,-12591.048,-12595.2295,-12588.959,-12576.659,-12586.623,-12592.984,-12583.49,-12576.835,-12577.818,-12599.636,-12623.136,-12614.882,-12607.259,-12623.709,-12648.181,-12688.967,-12702.237,-12681.951,-12679.411,-12663.896,-12651.65,-12639.746,-12588.047,-12574.406,-12589.469,-12584.959,-12601.062,-12604.915,-12598.495,-12595.768,-12562.873,-12558.7295,-12580.992,-12583.966,-12595.668,-12612.081,-12618.506,-12612.178,-12606.234,-12596.218,-12578.556,-12585.213,-12584.242,-12570.786,-12579.019,-12588.601,-12595.962,-12604.203,-12613.156,-12620.617,-12617.009,-12607.912,-12592.393,-12583.726,-12585.902,-12585.0625,-12590.824,-12601.639,-12607.361,-12610.916,-12612.307,-12597.158,-12566.186,-12553.681,-12566.365,-12570.345,-12552.05,-12553.725,-12598.017,-12638.112,-12652.953,-12648.72,-12617.548,-12603.28,-12627.416,-12619.758,-12601.5,-12608.533,-12586.189,-12571.87,-12560.737,-12536.122,-12560.444,-12581.996,-12596.359,-12617.314,-12608.829,-12603.672,-12596.559,-12601.606,-12608.644,-12588.185,-12582.341,-12578.52,-12570.525,-12572.677,-12570.537,-12561.856,-12562.786,-12585.145,-12604.192,-12605.968,-12591.801,-12597.21,-12637.281,-12651.934,-12662.822,-12685.391,-12665.251,-12644.256,-12627.334,-12588.221,-12574.208,-12567.486,-12571.173,-12601.235,-12629.482,-12646.119,-12605.831,-12557.119,-12566.286,-12588.117,-12591.49,-12580.629,-12586.778,-12590.557,-12593.612,-12611.755,-12602.6,-12598.765,-12597.282,-12573.944,-12568.42,-12578.694,-12584.701,-12588.868,-12609.662,-12618.475,-12595.453,-12602.493,-12633.294,-12619.671,-12588.35,-12576.953,-12559.603,-12539.642,-12552.103,-12601.767,-12615.741,-12592.359,-12606.658,-12611.316,-12595.487,-12590.976,-12567.689,-12554.804,-12579.373,-12595.003,-12576.643,-12580.128,-12596.517,-12583.594,-12579.467,-12567.046,-12561.795,-12591.22,-12603.582,-12606.627,-12614.574,-12619.441,-12607.7705,-12574.067,-12553.048,-12560.081,-12595.063,-12639.093,-12652.719,-12620.078,-12597.761,-12634.841,-12663.51,-12630.859,-12571.925,-12547.81,-12594.859,-12648.601,-12632.45,-12600.721,-12601.951,-12592.126,-12584.019,-12595.831,-12595.173,-12591.365,-12581.319,-12561.432,-12554.924,-12551.213,-12551.719,-12556.11,-12551.851,-12556.948,-12567.026,-12578.967,-12601.722,-12603.08,-12580.633,-12588.505,-12624.67,-12633.63,-12641.08,-12661.396,-12646.152,-12617.551,-12577.992,-12559.271,-12600.786,-12592.85,-12542.233,-12548.621,-12587.053,-12604.803,-12577.579,-12552.173,-12577.578,-12620.519,-12616.114,-12579.744,-12625.029,-12700.356,-12677.029,-12637.021,-12636.436,-12622.514,-12608.665,-12592.065,-12581.731,-12607.666,-12614.272,-12598.455,-12594.735,-12584.746,-12579.505,-12578.512,-12581.984,-12601.374,-12611.559,-12597.579,-12567.805,-12547.116,-12542.998,-12549.308,-12566.624,-12579.646,-12577.646,-12568.046,-12568.61,-12593.822,-12624.062,-12609.627,-12580.906,-12594.217,-12602.421,-12589.404,-12600.338,-12632.356,-12636.143,-12600.383,-12569.739,-12563.907,-12575.769,-12580.828,-12575.203,-12568.562,-12560.855,-12575.329,-12598.628,-12623.776,-12640.085,-12619.691,-12598.311,-12587.612,-12592.4795,-12606.814,-12601.528,-12593.433,-12586.557,-12599.292,-12613.583,-12605.957,-12607.032,-12590.686,-12579.035,-12580.063,-12570.303,-12585.63,-12591.842,-12599.862,-12609.702,-12581.6045,-12577.088,-12582.853,-12579.384,-12597.278,-12615.611,-12612.697,-12574.399,-12554.215,-12584.784,-12599.084,-12587.858,-12582.29,-12579.335,-12592.456,-12626.612,-12638.372,-12603.888,-12571.685,-12580.701,-12607.8125,-12612.039,-12574.005,-12550.504,-12573.618,-12584.333,-12582.27,-12592.092,-12615.651,-12654.745,-12661.322,-12640.917,-12633.957,-12621.383,-12598.407,-12567.147,-12552.641,-12576.943,-12601.941,-12601.196,-12583.177,-12574.736,-12582.131,-12593.207,-12591.915,-12584.613,-12594.729,-12600.363,-12597.898,-12591.8955,-12583.968,-12574.542,-12556.328,-12562.941,-12577.916,-12578.303,-12573.895,-12572.988,-12599.28,-12624.111,-12629.51,-12613.027,-12586.039,-12593.829,-12601.699,-12585.713,-12583.074,-12587.584,-12583.55,-12577.964,-12562.171,-12548.227,-12561.232,-12578.035,-12582.38,-12565.3,-12556.613,-12584.707,-12590.814,-12587.43,-12588.394,-12577.202,-12583.423,-12572.067,-12556.353,-12558.867,-12561.748,-12592.641,-12627.966,-12658.142,-12676.703,-12654.119,-12615.599,-12583.69,-12573.551,-12579.822,-12586.31,-12583.87,-12583.578,-12598.976,-12596.382,-12592.321,-12592.603,-12573.244,-12562.999,-12553.342,-12549.83,-12573.514,-12604.554,-12628.552,-12634.909,-12614.962,-12570.112,-12546.225,-12548.24,-12543.563,-12569.428,-12601.335,-12595.934,-12593.999,-12592.034,-12585.168,-12589.347,-12586.774,-12581.394,-12574.825,-12582.428,-12596.907,-12583.725,-12574.969,-12577.366,-12586.858,-12597.745,-12593.871,-12601.943,-12604.871,-12597.429,-12586.567,-12575.478,-12596.65,-12614.803,-12595.441,-12570.629,-12595.029,-12643.242,-12626.64,-12580.988,-12570.594,-12571.754,-12563.192,-12551.392,-12560.392,-12582.927,-12584.047,-12584.304,-12589.032,-12581.666,-12585.598,-12581.465,-12568.335,-12580.3,-12595.734,-12593.747,-12579.281,-12577.657,-12595.646,-12601.1,-12579.622,-12563.745,-12576.381,-12590.493,-12607.785,-12630.631,-12654.676,-12668.81,-12627.38,-12572.525,-12572.532,-12614.352,-12623.454,-12585.004,-12574.769,-12580.15,-12583.291,-12583.847,-12571.643,-12575.363,-12572.38,-12575.443,-12581.134,-12563.279,-12550.032,-12530.991,-12531.247,-12558.179,-12584.895,-12616.124,-12628.793,-12615.516,-12603.283,-12601.042,-12584.352,-12575.989,-12579.839,-12581.632,-12617.15,-12631.391,-12629.175,-12658.88,-12652.81,-12608.818,-12594.327,-12634.0205,-12645.356,-12594.088,-12582.887,-12617.322,-12627.299,-12607.188,-12595.495,-12588.779,-12578.067,-12594.295,-12616.618,-12620.652,-12592.424,-12540.033,-12530.83,-12551.747,-12552.287,-12547.935,-12554.308,-12564.83,-12566.218,-12595.564,-12633.492,-12603.9,-12604.373,-12650.357,-12624.668,-12581.638,-12565.681,-12559.54,-12558.056,-12547.131,-12551.442,-12558.432,-12558.902,-12556.363,-12549.692,-12563.938,-12573.4375,-12553.356,-12516.224,-12520.368,-12603.803,-12683.344,-12697.702,-12672.15,-12651.555,-12625.732,-12578.296,-12553.711,-12540.128,-12540.578,-12565.8125,-12568.359,-12569.932,-12570.719,-12557.74,-12556.163,-12552.944,-12567.161,-12590.908,-12580.401,-12556.628,-12560.8955,-12608.58,-12652.275,-12626.232,-12570.015,-12562.59,-12578.507,-12589.252,-12608.286,-12602.646,-12589.072,-12598.752,-12590.864,-12579.485,-12579.803,-12575.878
-12592.871,-12584.081,-12539.924,-12534.51,-12540.527,-12546.011,-12582.246,-12587.4,-12557.84,-12587.857,-12616.849,-12592.874,-12597.787,-12606.596,-12627.091,-12663.397,-12671.002,-12664.35,-12598.916,-12548.874,-12573.566,-12604.05,-12618.641,-12575.299,-12537.901,-12541.094,-12544.474,-12572.666,-12585.073,-12588.797,-12598.203,-12592.514,-12590.91,-12602.551,-12628.609,-12619.853,-12600.311,-12599.2705,-12587.665,-12600.573,-12607.091,-12599.62,-12590.892,-12560.938,-12565.206,-12576.031,-12566.617,-12566.305,-12550.974,-12554.905,-12608.317,-12659.034,-12654.778,-12638.301,-12665.535,-12671.466,-12633.484,-12605.424,-12603.541,-12601.283,-12569.117,-12553.206,-12567.68,-12558.408,-12520.741,-12505.7,-12560.887,-12605.806,-12575.844,-12549.058,-12529.298,-12509.952,-12529.321,-12538.083,-12528.253,-12534.881,-12538.574,-12538.21,-12539.788,-12550.293,-12571.002,-12568.08,-12545.797,-12535.624,-12543.029,-12542.878,-12524.821,-12529.325,-12550.516,-12552.178,-12540.717,-12530.009,-12528.971,-12549.711,-12589.535,-12595.361,-12562.601,-12540.779,-12526.319,-12530.39,-12545.753,-12561.388,-12599.816,-12602.212,-12571.405,-12581.596,-12608.3125,-12614.677,-12587.919,-12563.608,-12568.09,-12544.697,-12513.546,-12519.997,-12533.642,-12534.483,-12529.101,-12527.336,-12532.686,-12535.365,-12528.394,-12532.989,-12543.846,-12549.63,-12555.952,-12544.567,-12538.256,-12544.22,-12543.703,-12545.029,-12546.737,-12553.833,-12559.289,-12560.728,-12551.793,-12542.458,-12561.167,-12578.239,-12571.826,-12543.6875,-12543.58,-12591.363,-12608.6,-12598.397,-12586.305,-12569.198,-12557.833,-12539.353,-12543.499,-12577.219,-12582.782,-12558.126,-12550.115,-12545.54,-12532.884,-12544.162,-12559.161,-12566.728,-12557.295,-12543.006,-12568.462,-12588.999,-12580.737,-12556.456,-12540.007,-12555.769,-12569.409,-12575.322,-12564.224,-12547.844,-12544.261,-12540.886,-12560.587,-12576.562,-12582.24,-12595.5,-12599.171,-12603.366,-12584.611,-12549.324,-12552.969,-12585.431,-12593.436,-12585.484,-12603.757,-12607.799,-12592.218,-12584.422,-12564.402,-12565.8545,-12581.023,-12573.951,-12562.22,-12550.156,-12557.811,-12562.606,-12544.32,-12546.4375,-12553.056,-12547.918,-12544.928,-12541.764,-12542.201,-12534.294,-12532.786,-12557.972,-12583.237,-12589.582,-12564.462,-12525.559,-12523.335,-12544.529,-12545.168,-12538.688,-12545.802,-12551.605,-12552.121,-12546.379,-12540.602,-12569.385,-12600.828,-12578.018,-12553.9795,-12554.786,-12530.643,-12517.6,-12531.801,-12535.214,-12553.584,-12560.408,-12531.862,-12532.589,-12564.807,-12585.136,-12588.78,-12583.563,-12573.54,-12566.461,-12559.426,-12552.587,-12552.592,-12536.138,-12516.582,-12538.333,-12576.312,-12591.096,-12589.569,-12573.326,-12552.715,-12552.538,-12547.911,-12538.553,-12550.243,-12559.853,-12561.0,-12555.702,-12551.422,-12556.91,-12553.439,-12549.745,-12547.11,-12534.543,-12522.824,-12527.238,-12553.452,-12568.064,-12559.212,-12545.998,-12542.4375,-12561.657,-12568.673,-12562.099,-12581.276,-12604.235,-12615.104,-12604.799,-12581.701,-12580.077,-12567.686,-12545.1455,-12527.758,-12500.514,-12521.534,-12568.184,-12568.899,-12554.319,-12547.588,-12546.841,-12549.136,-12566.376,-12577.275,-12539.111,-12511.299,-12536.571,-12567.402,-12568.554,-12562.582,-12562.139,-12539.238,-12523.826,-12538.518,-12559.083,-12571.402,-12568.168,-12562.008,-12545.252,-12542.888,-12576.24,-12605.396,-12627.747,-12617.373,-12572.741,-12569.451,-12597.688,-12588.174,-12541.73,-12509.19,-12525.616,-12564.013,-12570.028,-12566.929,-12576.026,-12570.78,-12562.051,-12553.804,-12548.125,-12549.016,-12543.367,-12536.883,-12542.329,-12558.365,-12559.005,-12552.808,-12557.825,-12553.124,-12544.54,-12536.52,-12540.085,-12562.89,-12565.033,-12545.191,-12541.496,-12574.438,-12615.613,-12622.376,-12605.427,-12576.581,-12546.788,-12559.1045,-12586.931,-12556.383,-12510.74,-12521.964,-12553.985,-12555.832,-12566.629,-12618.909,-12632.713,-12600.54,-12593.403,-12585.493,-12563.309,-12561.422,-12564.227,-12554.742,-12548.964,-12557.308,-12574.866,-12571.754,-12549.8955,-12537.597,-12534.485,-12556.4375,-12594.49,-12611.334,-12586.162,-12543.186,-12562.248,-12628.799,-12657.387,-12651.978,-12642.08,-12621.839,-12611.085,-12627.46,-12619.099,-12568.964,-12538.97,-12539.11,-12546.395,-12551.977,-12545.092,-12537.876,-12536.164,-12538.989,-12543.957,-12550.791,-12557.45,-12552.995,-12561.799,-12579.483,-12582.879,-12579.508,-12565.01,-12544.993,-12530.848,-12552.313,-12588.96,-12573.168,-12542.255,-12541.203,-12566.929,-12597.361,-12588.727,-12571.544,-12569.09,-12571.588,-12595.584,-12594.523,-12561.74,-12552.786,-12548.1455,-12548.637,-12563.803,-12561.833,-12559.098,-12565.586,-12575.878,-12597.594,-12598.298,-12576.062,-12571.434,-12577.0625,-12596.912,-12622.894,-12608.804,-12586.119,-12575.183,-12561.748,-12554.92,-12540.359,-12530.312,-12531.139,-12528.346,-12540.782,-12564.523,-12566.43,-12569.972,-12600.521,-12604.653,-12588.063,-12589.929,-12586.301,-12591.143,-12610.51,-12602.444,-12575.376,-12557.799,-12549.17,-12548.219,-12552.782,-12565.015,-12574.969,-12575.566,-12583.323,-12588.254,-12576.623,-12553.925,-12546.842,-12566.644,-12579.523,-12574.682,-12563.501,-12560.931,-12564.769,-12571.353,-12582.566,-12570.71,-12548.557,-12547.237,-12561.589,-12572.596,-12569.72,-12563.65,-12565.445,-12580.892,-12591.892,-12586.235,-12579.407,-12576.266,-12562.707,-12548.269,-12559.783,-12567.716,-12559.162,-12549.686,-12537.148,-12543.33,-12567.948,-12595.862,-12599.784,-12564.833,-12546.682,-12558.599,-12566.147,-12566.7,-12561.746,-12565.192,-12580.314,-12586.721,-12587.885,-12602.919,-12626.007,-12612.573,-12587.338,-12592.593,-12583.996,-12581.908,-12583.277,-12558.013,-12566.228,-12583.235,-12586.645,-12590.701,-12574.241,-12576.66,-12593.979,-12585.141,-12570.149,-12582.496,-12596.448,-12578.972,-12568.943,-12570.611,-12574.315,-12580.819,-12576.298,-12574.489,-12569.69,-12569.571,-12572.245,-12569.333,-12576.794,-12582.538,-12601.951,-12611.044,-12578.828,-12559.456,-12569.537,-12587.815,-12594.351,-12584.612,-12574.9795,-12577.468,-12581.667,-12564.4,-12561.062,-12586.301,-12606.193,-12605.598,-12575.457,-12555.259,-12575.23,-12603.952,-12615.745,-12605.761,-12584.838,-12569.356,-12572.89,-12594.592,-12606.575,-12605.795,-12621.564,-12630.455,-12611.7,-12580.421,-12540.234,-12543.97,-12581.624,-12584.611,-12582.074,-12586.479,-12578.43,-12582.48,-12623.871,-12655.769,-12631.235,-12601.6045,-12573.5,-12549.081,-12558.165,-12569.716,-12586.222,-12601.753,-12598.804,-12588.274,-12574.788,-12563.89,-12560.909,-12573.86,-12573.419,-12572.395,-12597.701,-12615.918,-12623.737,-12613.201,-12595.136,-12603.158,-12614.635,-12598.163,-12578.61,-12569.201,-12551.21,-12549.368,-12556.422,-12569.182,-12586.808,-12585.152,-12590.48,-12592.495,-12590.161,-12585.088,-12585.54,-12608.509,-12596.243,-12572.064,-12569.312,-12578.206,-12606.327,-12597.667,-12558.065,-12557.452,-12590.558,-12610.685,-12605.751,-12602.086,-12611.214,-12606.892,-12588.894,-12595.876,-12609.337,-12604.07,-12604.1455,-12632.217,-12665.475,-12656.584,-12643.0205,-12655.559,-12663.908,-12655.455,-12623.799,-12570.349,-12507.695,-12516.892,-12614.862,-12691.379,-12684.516,-12610.272,-12568.897,-12584.117,-12603.853,-12634.097,-12634.031,-12600.117,-12578.324,-12569.956,-12565.687,-12571.056,-12597.016,-12603.529,-12565.652,-12541.768,-12572.602,-12605.547,-12602.282,-12588.837,-12585.028,-12591.628,-12589.076,-12584.434,-12570.458,-12536.081,-12549.15,-12603.276,-12634.789,-12669.406,-12692.657,-12658.68,-12613.259,-12577.274,-12556.833,-12567.22,-12572.78,-12579.798,-12588.065,-12587.036,-12586.737,-12581.798,-12607.825,-12645.676,-12648.428,-12630.265,-12608.673,-12604.131,-12595.147,-12564.913,-12551.035,-12561.644,-12560.632,-12549.009,-12586.416,-12654.527,-12672.074,-12657.066,-12673.893,-12688.105,-12660.216,-12631.136,-12591.964,-12557.15,-12559.23,-12547.888,-12552.439,-12589.43,-12602.15,-12602.741,-12610.5,-12621.785,-12610.338,-12571.777,-12535.569,-12511.992,-12509.448,-12507.781,-12518.144,-12550.016,-12551.406,-12540.405,-12539.585,-12523.14,-12518.377,-12528.913,-12503.006,-12450.31,-12418.383,-12432.489,-12479.629,-12503.752,-12508.41,-12505.853,-12475.466,-12456.826,-12454.155,-12425.85,-12395.755,-12417.951,-12448.366,-12413.378,-12357.469,-12335.039,-12341.7,-12343.131,-12338.514,-12334.322,-12302.175,-12286.075,-12281.436,-12260.586,-12258.03,-12248.713,-12242.809,-12251.671,-12243.662,-12231.933,-12234.02,-12243.622,-12239.455,-12234.599,-12232.163,-12221.288,-12215.29,-12194.885,-12168.345,-12158.39,-12151.2,-12145.039,-12144.389,-12153.354,-12160.579,-12148.183,-12128.196,-12118.665,-12126.986,-12144.19,-12143.04,-12121.501,-12093.198,-12086.652,-12125.618,-12143.441,-12122.232,-12120.837,-12117.204,-12104.008,-12101.213,-12096.056,-12092.2295,-12092.42,-12092.986,-12088.369,-12084.851,-12088.102,-12090.913,-12095.585,-12089.411,-12083.707,-12093.274,-12092.838,-12088.603,-12090.172,-12088.29,-12080.009,-12067.736,-12065.905,-12072.152,-12083.843,-12086.648,-12066.918,-12055.293,-12063.056,-12089.936,-12124.823,-12126.132,-12109.441,-12121.028,-12140.202,-12133.589,-12125.527,-12127.213,-12123.561,-12122.482,-12111.344,-12097.641,-12121.644,-12151.976,-12138.927,-12113.012,-12121.75,-12142.156,-12156.819,-12170.894,-12151.246,-12131.138,-12145.246,-12159.144,-12169.965,-12178.249,-12191.689,-12196.7,-12189.782,-12204.998,-12213.49,-12206.55,-12192.508,-12183.862,-12207.538,-12228.297,-12233.05,-12229.964,-12230.3125,-12240.483,-12246.528,-12251.713,-12239.1875,-12219.25,-12200.34,-12191.401,-12220.668,-12250.586,-12263.207,-12257.322,-12233.552,-12216.681,-12208.457,-12219.118,-12237.975,-12254.765,-12267.986,-12258.169,-12244.985,-12240.544,-12241.126,-12247.512,-12254.401,-12269.946,-12277.862,-12277.426,-12287.124,-12295.423,-12309.266,-12327.864,-12325.257,-12295.032,-12267.26,-12287.309,-12332.611,-12329.114,-12290.673,-12279.275,-12273.249,-12267.83,-12287.197,-12301.667,-12301.748,-12294.463,-12293.326,-12296.84,-12291.708,-12306.012,-12325.283,-12320.95,-12317.588,-12324.704,-12315.986,-12296.798,-12321.594,-12357.997,-12347.368,-12338.455,-12344.142,-12354.543,-12361.445,-12338.782,-12330.184,-12335.695,-12351.622,-12368.912,-12352.7295,-12356.648,-12353.265,-12329.937,-12346.271,-12386.411,-12406.56,-12380.542,-12373.308,-12376.0625,-12346.118,-12334.469,-12328.85,-12330.335,-12339.32,-12343.001,-12350.218,-12340.29,-12334.108,-12341.983,-12352.271,-12372.857,-12388.656,-12381.871,-12371.992,-12378.565,-12369.864,-12343.8125,-12348.863,-12388.799,-12414.979,-12432.414,-12485.034,-12520.793,-12495.847,-12453.749,-12425.883,-12404.323,-12375.739,-12374.858,-12390.483,-12374.086,-12369.383,-12381.705,-12372.704,-12361.376,-12365.266,-12382.926,-12392.312,-12388.809,-12393.278,-12399.711,-12388.316,-12372.776,-12381.823,-12408.893,-12453.842,-12478.768,-12458.878,-12460.673,-12481.81,-12492.708,-12480.054,-12446.365,-12453.2,-12461.825,-12428.959,-12413.516,-12412.709,-12406.393,-12412.982,-12417.901,-12414.113,-12406.064,-12385.215,-12373.73,-12384.541,-12398.552,-12401.665,-12403.261,-12415.847,-12443.35,-12485.358,-12487.493,-12446.926,-12434.356,-12440.41,-12438.522,-12440.429,-12444.869,-12448.276,-12456.405,-12470.044,-12485.475,-12481.077,-12451.851,-12440.402,-12442.166,-12435.493,-12415.042,-12382.59,-12381.962,-12409.46,-12437.832,-12447.3955,-12433.6045,-12434.347,-12441.99,-12447.9795,-12457.203,-12453.477,-12438.185,-12426.907,-12434.241,-12444.588,-12451.185,-12456.52,-12446.77,-12432.593,-12446.822,-12506.644,-12552.747,-12521.474,-12470.795,-12477.611,-12504.744,-12504.27,-12511.685,-12536.164,-12542.827,-12532.94,-12501.209,-12454.213,-12443.5205,-12447.999,-12439.186,-12452.655,-12459.128,-12439.455,-12430.221,-12432.352,-12431.7705,-12427.891,-12430.193,-12428.378,-12420.868,-12420.6045,-12422.389,-12431.316,-12430.588,-12399.531,-12400.191,-12472.181,-12519.672,-12508.147,-12510.232,-12505.125,-12471.955,-12447.74,-12419.266,-12408.905,-12454.609,-12492.869,-12478.452,-12455.0205,-12449.572,-12446.291,-12434.209,-12435.265,-12463.938,-12482.891,-12471.654,-12477.309,-12514.473,-12527.75,-12500.864,-12467.606,-12457.83,-12463.919,-12458.263,-12455.585,-12460.641,-12451.153,-12421.589,-12407.709,-12460.232,-12503.502,-12482.508,-12487.6045,-12501.142,-12476.13,-12464.707,-12472.238,-12485.621,-12498.191,-12501.828,-12498.3955,-12481.361,-12462.742,-12463.432,-12482.338,-12486.398,-12475.902,-12478.239,-12484.494,-12484.491,-12473.029,-12476.811,-12499.224,-12499.958,-12495.02,-12490.361,-12477.328,-12461.672,-12449.301,-12450.188,-12452.103,-12485.696,-12527.671,-12517.563,-12503.179,-12493.267,-12482.009,-12491.481,-12495.739,-12486.451,-12470.403,-12461.199,-12475.354,-12504.973,-12515.171,-12513.637,-12540.619,-12538.759,-12493.229,-12469.272,-12461.525,-12467.617,-12499.246,-12522.051,-12499.466,-12481.009,-12524.0,-12562.733,-12555.061,-12525.682,-12488.897,-12473.876,-12475.922,-12472.057,-12460.283,-12450.399,-12454.753,-12453.536,-12460.644,-12490.895,-12497.485,-12493.464,-12506.906,-12507.629,-12500.754,-12503.33,-12515.456
-12524.809,-12514.695,-12517.173,-12526.013,-12554.192,-12618.208,-12583.218,-12491.13,-12474.265,-12458.636,-12468.8545,-12500.983,-12477.544,-12479.0,-12490.817,-12484.62,-12516.524,-12527.191,-12497.616,-12482.567,-12486.054,-12505.101,-12528.012,-12535.638,-12517.965,-12487.028,-12490.33,-12514.253,-12497.659,-12473.134,-12480.912,-12487.031,-12484.99,-12496.075,-12509.766,-12507.787,-12504.351,-12506.835,-12499.805,-12502.37,-12521.2,-12533.811,-12544.71,-12529.091,-12494.324,-12487.45,-12485.049,-12492.37,-12500.247,-12490.284,-12500.374,-12512.547,-12534.161,-12552.762,-12535.326,-12524.726,-12520.662,-12510.617,-12490.214,-12480.176,-12504.13,-12530.302,-12562.994,-12576.315,-12548.474,-12533.327,-12527.655,-12515.386,-12529.377,-12560.895,-12560.254,-12511.678,-12473.551,-12495.905,-12524.296,-12524.096,-12514.303,-12500.704,-12504.845,-12503.69,-12483.442,-12494.067,-12517.165,-12504.314,-12489.51,-12492.076,-12488.529,-12489.677,-12492.737,-12497.735,-12511.189,-12524.815,-12562.893,-12617.301,-12623.96,-12572.971,-12531.293,-12511.027,-12487.587,-12473.633,-12468.055,-12483.046,-12499.19,-12488.206,-12485.884,-12497.517,-12515.139,-12541.522,-12551.12,-12529.981,-12506.491,-12500.912,-12493.87,-12491.956,-12507.8125,-12516.82,-12513.552,-12513.254,-12500.867,-12474.65,-12467.881,-12481.485,-12511.141,-12531.347,-12524.603,-12546.631,-12570.854,-12547.994,-12521.116,-12508.913,-12516.917,-12542.501,-12589.99,-12648.911,-12629.288,-12537.125,-12478.908,-12480.537,-12486.626,-12473.949,-12468.678,-12461.375,-12465.935,-12485.948,-12488.977,-12490.49,-12484.071,-12478.8955,-12483.06,-12477.56,-12486.112,-12491.337,-12481.585,-12480.237,-12478.963,-12469.999,-12457.517,-12476.214,-12512.966,-12505.792,-12483.511,-12489.724,-12504.948,-12507.061,-12492.589,-12482.422,-12484.56,-12480.176,-12475.365,-12479.96,-12486.755,-12486.71,-12475.246,-12480.66,-12508.609,-12524.631,-12517.679,-12494.108,-12480.545,-12488.913,-12502.102,-12507.56,-12501.733,-12504.086,-12516.474,-12528.098,-12528.761,-12508.363,-12487.681,-12476.435,-12482.537,-12494.039,-12485.387,-12490.882,-12505.213,-12494.119,-12492.504,-12501.167,-12491.794,-12488.297,-12491.188,-12477.957,-12454.455,-12442.901,-12469.057,-12496.21,-12465.965,-12431.241,-12472.866,-12546.864,-12583.306,-12581.094,-12542.716,-12498.625,-12485.652,-12492.831,-12499.3545,-12510.871,-12531.928,-12515.893,-12488.6045,-12493.077,-12491.206,-12491.043,-12479.615,-12460.239,-12459.1875,-12462.39,-12498.171,-12511.316,-12474.558,-12469.767,-12472.8955,-12463.022,-12485.4795,-12508.35,-12490.638,-12480.631,-12491.522,-12500.669,-12518.491,-12524.217,-12509.855,-12489.912,-12502.501,-12537.422,-12516.246,-12477.3545,-12465.007,-12459.653,-12476.657,-12501.193,-12501.8,-12488.155,-12471.763,-12448.236,-12453.29,-12490.411,-12517.091,-12539.009,-12551.373,-12544.652,-12518.711,-12490.172,-12492.94,-12503.015,-12503.768,-12504.618,-12497.832,-12489.531,-12485.705,-12483.916,-12482.228,-12484.592,-12501.292,-12520.05,-12518.811,-12509.104,-12510.221,-12515.755,-12516.37,-12514.966,-12514.974,-12518.56,-12537.962,-12541.908,-12494.225,-12470.287,-12501.166,-12514.081,-12508.856,-12505.172,-12499.973,-12530.765,-12591.279,-12591.195,-12530.872,-12514.335,-12525.634,-12522.244,-12510.341,-12488.83,-12505.823,-12522.393,-12503.872,-12498.868,-12505.902,-12516.744,-12515.385,-12518.707,-12513.975,-12486.844,-12483.287,-12483.627,-12485.2705,-12498.052,-12520.944,-12535.417,-12512.925,-12491.172,-12484.742,-12501.807,-12517.135,-12503.143,-12502.485,-12507.838,-12501.945,-12496.807,-12505.979,-12515.192,-12500.493,-12509.11,-12549.276,-12555.476,-12512.622,-12481.1,-12497.267,-12507.077,-12494.232,-12509.748,-12548.309,-12561.472,-12540.291,-12516.975,-12511.031,-12520.385,-12537.15,-12546.873,-12527.572,-12496.691,-12496.533,-12503.118,-12494.29,-12482.787,-12481.85,-12500.063,-12511.471,-12512.087,-12499.008,-12479.848,-12498.145,-12546.897,-12577.188,-12551.892,-12513.593,-12498.604,-12492.804,-12506.04,-12517.267,-12515.724,-12502.817,-12507.18,-12547.216,-12548.177,-12516.089,-12499.345,-12490.649,-12489.192,-12493.438,-12506.635,-12510.352,-12491.11,-12471.245,-12491.109,-12537.922,-12541.658,-12520.366,-12511.421,-12512.0625,-12517.617,-12512.546,-12512.621,-12507.455,-12504.115,-12525.199,-12525.77,-12506.613,-12500.522,-12510.513,-12529.747,-12544.762,-12551.196,-12543.657,-12530.108,-12535.468,-12555.259,-12565.782,-12573.703,-12571.406,-12542.379,-12513.887,-12501.971,-12502.617,-12516.184,-12532.307,-12531.031,-12517.702,-12512.427,-12517.92,-12515.833,-12491.538,-12499.778,-12542.89,-12547.417,-12526.647,-12513.444,-12509.273,-12516.327,-12525.207,-12527.333,-12534.105,-12535.765,-12516.545,-12508.001,-12506.758,-12513.098,-12524.432,-12519.369,-12522.612,-12519.485,-12524.602,-12546.074,-12551.866,-12565.857,-12562.294,-12521.523,-12484.428,-12484.88,-12503.522,-12513.932,-12542.573,-12541.436,-12512.032,-12515.021,-12510.558,-12506.1,-12507.008,-12501.035,-12519.77,-12534.264,-12528.043,-12526.209,-12535.378,-12544.33,-12562.358,-12577.104,-12537.91,-12506.17,-12513.243,-12502.631,-12503.678,-12509.464,-12500.609,-12503.624,-12501.104,-12511.71,-12537.831,-12531.478,-12525.432,-12542.069,-12531.928,-12513.725,-12521.052,-12517.867,-12506.726,-12515.908,-12532.185,-12521.698,-12489.622,-12516.203,-12564.47,-12538.424,-12514.263,-12515.784,-12506.389,-12524.215,-12560.226,-12585.088,-12567.403,-12533.011,-12519.668,-12509.401,-12517.161,-12509.423,-12506.35,-12539.674,-12549.322,-12560.63,-12559.755,-12528.722,-12525.728,-12527.761,-12516.459,-12515.489,-12522.793,-12521.491,-12524.211,-12551.329,-12567.078,-12542.569,-12509.667,-12517.319,-12536.601,-12513.234,-12488.256,-12485.477,-12493.363,-12519.061,-12528.017,-12521.547,-12526.347,-12523.657,-12523.535,-12528.828,-12520.474,-12512.211,-12499.875,-12481.049,-12497.6,-12551.239,-12576.04,-12551.545,-12520.551,-12510.655,-12524.29,-12534.065,-12538.117,-12555.854,-12559.576,-12540.868,-12505.442,-12477.255,-12506.645,-12547.338,-12537.826,-12532.452,-12546.032,-12513.723,-12464.615,-12456.386,-12480.298,-12507.776,-12508.816,-12490.7,-12477.037,-12493.21,-12537.131,-12561.809,-12547.893,-12509.436,-12491.408,-12504.269,-12508.784,-12515.738,-12531.732,-12536.993,-12538.305,-12524.174,-12503.021,-12532.309,-12583.751,-12573.588,-12525.069,-12494.228,-12489.88,-12519.043,-12537.086,-12515.204,-12508.709,-12518.569,-12524.449,-12530.735,-12530.08,-12540.243,-12544.514,-12531.5205,-12516.957,-12493.331,-12485.719,-12493.739,-12500.181,-12512.565,-12513.317,-12497.263,-12490.272,-12504.661,-12513.343,-12511.317,-12510.302,-12505.106,-12511.844,-12522.564,-12527.581,-12537.25,-12544.698,-12552.65,-12561.427,-12556.191,-12528.827,-12517.143,-12531.923,-12516.323,-12504.761,-12537.065,-12544.294,-12524.915,-12517.38,-12511.822,-12521.624,-12532.207,-12531.251,-12542.685,-12543.296,-12538.11,-12537.729,-12527.396,-12521.521,-12515.726,-12517.225,-12506.558,-12475.49,-12490.336,-12532.448,-12556.337,-12579.954,-12576.427,-12545.298,-12551.334,-12577.203,-12585.544,-12565.364,-12518.919,-12518.263,-12540.312,-12532.597,-12531.358,-12537.79,-12556.378,-12567.542,-12551.739,-12529.559,-12511.181,-12509.761,-12503.744,-12500.857,-12516.672,-12520.356,-12518.681,-12528.89,-12541.855,-12542.421,-12533.258,-12526.449,-12526.227,-12530.409,-12527.933,-12513.198,-12500.205,-12506.928,-12516.266,-12525.314,-12544.282,-12546.603,-12528.468,-12513.471,-12523.816,-12547.292,-12552.802,-12550.535,-12548.168,-12540.142,-12535.129,-12545.716,-12560.363,-12559.091,-12551.914,-12544.993,-12541.28,-12525.55,-12497.632,-12502.739,-12513.414,-12501.836,-12498.886,-12502.957,-12514.955,-12525.428,-12518.115,-12511.888,-12511.965,-12507.473,-12499.685,-12492.231,-12494.612,-12503.771,-12497.592,-12503.794,-12530.101,-12527.881,-12505.6,-12498.569,-12527.144,-12562.791,-12557.006,-12539.619,-12534.903,-12532.26,-12535.933,-12535.548,-12538.291,-12561.344,-12566.951,-12544.969,-12538.046,-12536.412,-12537.225,-12553.597,-12546.517,-12528.125,-12536.523,-12555.779,-12577.717,-12586.918,-12554.587,-12500.694,-12476.932,-12501.251,-12555.972,-12591.131,-12568.491,-12535.646,-12521.201,-12508.126,-12512.608,-12532.407,-12542.735,-12534.308,-12524.017,-12529.217,-12538.286,-12544.713,-12549.888,-12548.825,-12548.418,-12551.567,-12543.439,-12529.758,-12518.077,-12497.338,-12477.531,-12498.593,-12559.607,-12573.609,-12539.732,-12534.57,-12536.69,-12538.129,-12552.074,-12556.712,-12552.885,-12544.096,-12545.055,-12554.402,-12552.779,-12536.829,-12528.601,-12541.746,-12540.23,-12549.46,-12589.255,-12599.382,-12570.751,-12533.232,-12526.056,-12536.966,-12531.278,-12538.849,-12546.242,-12538.487,-12532.055,-12525.938,-12534.986,-12543.538,-12543.578,-12537.373,-12521.669,-12525.931,-12522.832,-12502.372,-12512.552,-12543.579,-12563.84,-12558.752,-12549.337,-12557.522,-12567.897,-12570.196,-12569.708,-12581.239,-12582.78,-12569.855,-12573.546,-12570.279,-12575.165,-12619.781,-12646.291,-12615.13,-12556.466,-12515.681,-12524.154,-12565.84,-12572.837,-12548.183,-12556.34,-12566.56,-12553.618,-12554.522,-12558.733,-12551.89,-12547.863,-12544.437,-12539.362,-12539.27,-12534.146,-12526.002,-12525.418,-12524.052,-12527.553,-12539.673,-12549.136,-12558.307,-12563.899,-12559.267,-12560.6875,-12574.945,-12590.446,-12584.871,-12556.422,-12542.774,-12542.143,-12546.972,-12559.372,-12553.249,-12541.588,-12538.977,-12539.759,-12543.362,-12535.993,-12522.673,-12529.642,-12565.954,-12608.222,-12627.373,-12603.622,-12560.057,-12548.956,-12554.937,-12558.299,-12575.013,-12580.072,-12560.896,-12541.892,-12533.698,-12527.728,-12524.101,-12541.765,-12555.846,-12549.567,-12549.063,-12524.505,-12494.584,-12525.253,-12569.411,-12578.544,-12562.336,-12534.209,-12525.209,-12545.057,-12570.888,-12575.838,-12561.054,-12546.349,-12539.146,-12542.441,-12542.125,-12537.7,-12537.83,-12540.503,-12553.202,-12553.449,-12540.855,-12540.678,-12539.878,-12545.805,-12553.851,-12538.798,-12526.3125,-12529.07,-12529.147,-12537.743,-12558.949,-12568.083,-12561.281,-12553.177,-12550.344,-12563.637,-12585.069,-12581.288,-12555.794,-12532.163,-12521.171,-12530.035,-12537.134,-12534.402,-12540.453,-12541.156,-12528.324,-12525.166,-12535.805,-12542.399,-12536.145,-12529.827,-12540.408,-12551.691,-12552.898,-12569.534,-12576.315,-12545.29,-12542.934,-12583.397,-12589.006,-12557.522,-12549.909,-12571.133,-12574.683,-12559.957,-12554.368,-12545.89,-12548.744,-12570.318,-12586.1,-12594.918,-12590.014,-12579.389,-12567.722,-12568.525,-12590.149,-12581.364,-12554.592,-12542.033,-12542.652,-12561.652,-12564.617,-12565.217,-12574.441,-12563.734,-12547.643,-12524.002,-12508.17,-12518.863,-12532.174,-12523.527,-12511.283,-12534.66,-12564.083,-12591.062,-12597.516,-12553.885,-12527.195,-12527.797,-12538.419,-12551.077,-12542.041,-12542.216,-12540.324,-12525.466,-12526.569,-12533.061,-12532.782,-12534.205,-12542.396,-12544.434,-12543.35,-12543.298,-12539.786,-12545.046,-12545.374,-12534.899,-12530.991,-12525.591,-12507.876,-12496.167,-12513.928,-12535.834,-12544.974,-12562.837,-12574.735,-12571.107,-12552.167,-12521.611,-12516.546,-12535.353,-12569.67,-12603.9375,-12592.432,-12557.649,-12549.357,-12561.786,-12551.343,-12541.634,-12577.109,-12595.8,-12578.425,-12559.487,-12542.3,-12549.908,-12557.466,-12541.612,-12547.455,-12569.582,-12568.736,-12558.201,-12558.922,-12557.109,-12542.786,-12528.712,-12525.432,-12537.386,-12550.013,-12549.813,-12551.676,-12544.369,-12532.12,-12543.13,-12548.626,-12541.765,-12545.296,-12556.024,-12564.836,-12562.371,-12561.676,-12567.71,-12574.579,-12579.005,-12575.716,-12569.748,-12553.377,-12545.825,-12560.591,-12565.336,-12554.097,-12525.321,-12494.86,-12520.273,-12576.658,-12592.629,-12583.379,-12565.57,-12546.75,-12543.251,-12536.85,-12545.323,-12556.409,-12549.119,-12554.654,-12549.44,-12527.02,-12525.97,-12558.997,-12585.035,-12566.537,-12551.473,-12551.888,-12556.843,-12570.445,-12568.758,-12570.085,-12580.6875,-12597.004,-12607.5205,-12584.568,-12574.589,-12579.537,-12559.019,-12550.381,-12557.903,-12559.789,-12569.051,-12562.369,-12551.8955,-12566.163,-12567.867,-12561.43,-12562.192,-12561.384,-12554.93,-12541.915,-12546.446,-12557.455,-12557.624,-12550.726,-12547.249,-12545.357,-12528.701,-12543.142,-12578.3955,-12578.582,-12570.28,-12565.034,-12562.757,-12575.677,-12582.449,-12574.134,-12569.202,-12563.074,-12549.102,-12536.628,-12538.129,-12567.868,-12589.898,-12580.458,-12572.992,-12583.482,-12595.18,-12581.285,-12560.302,-12562.779,-12569.719,-12563.972,-12568.215,-12575.4,-12564.194,-12582.114,-12624.163,-12640.267,-12621.954,-12561.334,-12510.455,-12514.838,-12546.265,-12571.76,-12570.933,-12569.265,-12581.889,-12573.84,-12551.543,-12542.38,-12540.919,-12553.144,-12584.445,-12595.465,-12566.891,-12551.498,-12563.905,-12559.156,-12548.381,-12552.171,-12558.325,-12564.049,-12553.948,-12534.343,-12537.923,-12547.506,-12550.295,-12563.971,-12559.99,-12549.108,-12565.959,-12564.162,-12544.587,-12541.223,-12546.295,-12569.084,-12584.407,-12579.098,-12583.361,-12583.364,-12574.746,-12573.902,-12581.346
-12579.905,-12562.755,-12567.768,-12594.667,-12605.025,-12587.665,-12565.162,-12563.811,-12571.163,-12564.534,-12552.665,-12580.285,-12630.628,-12636.78,-12582.309,-12515.788,-12529.3545,-12594.546,-12617.656,-12601.488,-12583.133,-12584.392,-12587.432,-12578.277,-12561.406,-12557.594,-12570.696,-12561.344,-12562.194,-12597.114,-12614.8125,-12597.155,-12566.894,-12558.122,-12571.578,-12592.0205,-12609.726,-12608.751,-12595.615,-12587.232,-12613.6875,-12661.338,-12669.807,-12658.332,-12660.567,-12636.183,-12577.0205,-12543.151,-12559.239,-12593.262,-12594.567,-12554.802,-12534.396,-12531.514,-12530.033,-12558.13,-12584.594,-12599.888,-12594.731,-12563.421,-12557.557,-12553.819,-12541.237,-12547.038,-12567.719,-12607.962,-12640.46,-12644.432,-12623.895,-12615.758,-12622.829,-12597.902,-12583.678,-12591.506,-12584.187,-12575.288,-12577.656,-12589.191,-12581.446,-12562.188,-12552.082,-12541.836,-12544.334,-12560.622,-12566.374,-12559.677,-12583.04,-12613.389,-12592.968,-12568.67,-12595.394,-12647.659,-12663.344,-12640.894,-12591.599,-12545.591,-12558.849,-12564.676,-12552.316,-12549.626,-12531.204,-12531.093,-12531.409,-12538.418,-12566.18,-12571.764,-12558.72,-12554.833,-12584.138,-12611.798,-12619.431,-12610.866,-12585.442,-12579.731,-12586.936,-12577.052,-12543.368,-12552.151,-12610.33,-12624.719,-12603.285,-12574.1455,-12555.171,-12555.55,-12545.255,-12538.674,-12538.655,-12525.002,-12516.423,-12521.434,-12511.588,-12506.074,-12526.646,-12547.423,-12561.67,-12561.661,-12556.116,-12555.331,-12561.66,-12572.998,-12564.538,-12555.34,-12557.025,-12562.444,-12560.741,-12544.827,-12551.348,-12558.494,-12558.651,-12578.457,-12570.775,-12540.93,-12528.338,-12514.583,-12509.988,-12527.651,-12531.669,-12545.681,-12585.095,-12586.011,-12568.981,-12556.774,-12528.448,-12526.853,-12553.308,-12589.848,-12626.731,-12604.384,-12533.767,-12503.274,-12543.329,-12583.622,-12573.06,-12561.47,-12557.556,-12555.598,-12578.334,-12588.896,-12581.995,-12565.143,-12553.712,-12574.392,-12575.168,-12559.427,-12569.616,-12577.072,-12572.125,-12573.469,-12568.752,-12547.968,-12537.35,-12536.251,-12528.455,-12534.778,-12550.582,-12554.524,-12560.009,-12562.664,-12562.0,-12568.135,-12561.69,-12556.666,-12553.372,-12546.453,-12560.968,-12561.426,-12560.013,-12594.943,-12613.478,-12603.253,-12584.579,-12558.908,-12555.724,-12573.273,-12572.767,-12565.025,-12565.553,-12558.096,-12564.4795,-12585.034,-12589.882,-12586.114,-12573.573,-12558.71,-12551.668,-12543.749,-12544.618,-12553.928,-12556.932,-12543.827,-12520.891,-12529.914,-12566.066,-12587.977,-12598.297,-12608.299,-12626.832,-12641.57,-12656.676,-12697.731,-12719.234,-12659.977,-12558.8545,-12535.84,-12581.153,-12604.226,-12614.337,-12619.3,-12625.838,-12615.396,-12599.09,-12604.358,-12566.13,-12542.701,-12546.12,-12518.024,-12536.277,-12570.369,-12569.457,-12557.947,-12553.963,-12575.288,-12590.801,-12590.814,-12575.8,-12565.321,-12570.089,-12567.507,-12581.941,-12600.605,-12601.15,-12586.632,-12580.183,-12622.447,-12647.54,-12608.123,-12560.862,-12540.717,-12560.465,-12596.142,-12588.915,-12538.962,-12521.421,-12587.594,-12687.2295,-12728.952,-12700.28,-12638.515,-12592.118,-12601.049,-12601.178,-12579.114,-12597.144,-12625.82,-12626.55,-12588.528,-12551.91,-12563.77,-12576.977,-12576.4,-12592.516,-12584.352,-12556.053,-12553.132,-12545.128,-12547.173,-12550.997,-12535.713,-12551.498,-12560.213,-12542.622,-12538.576,-12568.478,-12612.924,-12602.773,-12576.369,-12580.232,-12592.312,-12628.943,-12658.904,-12657.872,-12660.496,-12641.65,-12583.405,-12550.161,-12556.409,-12559.912,-12580.568,-12617.004,-12621.755,-12593.753,-12557.68,-12533.342,-12518.7295,-12550.499,-12644.937,-12684.997,-12625.842,-12573.734,-12570.28,-12560.059,-12544.657,-12549.254,-12546.573,-12545.145,-12555.965,-12555.232,-12557.762,-12590.437,-12622.048,-12627.8125,-12633.052,-12633.791,-12650.982,-12672.775,-12624.366,-12581.192,-12596.721,-12602.136,-12631.083,-12665.719,-12642.996,-12622.315,-12597.595,-12573.127,-12612.025,-12653.756,-12647.467,-12616.573,-12591.246,-12592.631,-12599.777,-12588.73,-12560.791,-12538.541,-12564.536,-12656.21,-12752.973,-12782.404,-12712.686,-12581.847,-12499.712,-12511.899,-12585.07,-12646.516,-12678.392,-12695.806,-12642.281,-12595.657,-12614.37,-12603.194,-12586.336,-12598.734,-12608.428,-12587.164,-12560.218,-12578.912,-12586.711,-12593.805,-12632.214,-12661.596,-12665.78,-12603.979,-12536.476,-12536.454,-12576.274,-12601.908,-12565.795,-12544.913,-12554.383,-12532.187,-12542.008,-12567.925,-12527.368,-12484.011,-12481.961,-12500.748,-12561.767,-12618.472,-12606.421,-12557.046,-12561.824,-12607.965,-12582.296,-12536.948,-12530.9,-12521.507,-12547.649,-12605.342,-12641.406,-12654.287,-12624.754,-12583.002,-12581.423,-12598.069,-12620.427,-12604.788,-12550.38,-12550.944,-12594.985,-12608.01,-12589.222,-12574.385,-12546.841,-12518.282,-12525.532,-12553.606,-12567.5625,-12520.492,-12499.728,-12529.139,-12515.514,-12507.253,-12507.588,-12504.963,-12503.768,-12483.2,-12486.889,-12490.879,-12475.566,-12467.886,-12471.406,-12481.76,-12482.489,-12478.548,-12470.644,-12479.656,-12516.218,-12540.862,-12543.886,-12542.849,-12525.837,-12480.678,-12457.2,-12461.303,-12457.8,-12462.324,-12464.686,-12450.9,-12446.561,-12461.419,-12471.425,-12474.129,-12499.482,-12534.633,-12533.67,-12532.856,-12573.227,-12564.965,-12476.699,-12400.193,-12389.804,-12416.654,-12449.217,-12478.567,-12457.931,-12436.435,-12450.407,-12427.345,-12392.947,-12376.047,-12386.251,-12408.103,-12400.1875,-12435.329,-12499.6875,-12497.95,-12478.086,-12485.012,-12474.859,-12456.511,-12454.084,-12450.157,-12468.868,-12500.158,-12510.344,-12521.12,-12504.044,-12454.509,-12435.984,-12439.733,-12427.209,-12407.236,-12405.899,-12436.538,-12469.147,-12457.986,-12417.432,-12396.073,-12399.169,-12403.849,-12408.558,-12416.903,-12437.866,-12465.52,-12457.275,-12432.413,-12434.218,-12448.929,-12436.924,-12395.802,-12399.605,-12435.231,-12449.29,-12462.029,-12449.82,-12433.578,-12461.9375,-12491.848,-12486.745,-12463.523,-12436.316,-12406.2705,-12410.157,-12442.7,-12435.378,-12401.686,-12392.734,-12402.161,-12407.369,-12396.542,-12389.244,-12421.168,-12463.35,-12465.348,-12458.212,-12450.916,-12417.787,-12400.102,-12385.941,-12377.378,-12421.617,-12446.931,-12446.228,-12458.427,-12454.895,-12455.068,-12437.342,-12397.479,-12399.683,-12433.635,-12441.329,-12430.632,-12449.1,-12450.744,-12405.526,-12373.208,-12387.715,-12438.901,-12488.208,-12501.837,-12456.472,-12407.829,-12404.057,-12403.266,-12419.087,-12422.789,-12405.2705,-12404.313,-12380.351,-12384.284,-12401.893,-12381.762,-12389.542,-12397.067,-12405.94,-12421.715,-12396.692,-12378.348,-12399.616,-12438.93,-12459.933,-12478.677,-12491.216,-12461.349,-12433.335,-12430.221,-12454.099,-12457.741,-12442.193,-12472.231,-12473.871,-12451.953,-12438.518,-12376.803,-12363.421,-12438.968,-12469.422,-12412.68,-12352.868,-12369.91,-12408.766,-12394.044,-12379.8545,-12388.747,-12396.3,-12397.676,-12397.142,-12415.798,-12432.797,-12435.26,-12419.12,-12372.44,-12352.364,-12393.957,-12425.277,-12406.845,-12396.08,-12397.631,-12391.488,-12410.296,-12461.381,-12490.344,-12449.476,-12412.88,-12406.801,-12366.215,-12351.663,-12401.717,-12436.282,-12417.066,-12392.821,-12395.208,-12413.089,-12447.089,-12444.096,-12393.144,-12372.373,-12388.953,-12394.862,-12358.422,-12347.172,-12440.592,-12513.805,-12464.354,-12393.967,-12368.43,-12367.648,-12391.448,-12471.261,-12537.268,-12483.708,-12440.541,-12489.909,-12519.936,-12513.28,-12498.108,-12455.8125,-12378.126,-12328.206,-12342.33,-12364.299,-12367.883,-12354.411,-12368.132,-12417.712,-12421.085,-12381.362,-12346.542,-12351.005,-12392.702,-12409.707,-12393.112,-12356.021,-12340.198,-12377.211,-12412.503,-12403.614,-12384.259,-12406.764,-12423.621,-12440.18,-12478.073,-12451.566,-12408.575,-12391.882,-12360.854,-12338.571,-12323.968,-12335.633,-12389.282,-12419.38,-12397.995,-12405.488,-12447.227,-12404.562,-12324.54,-12335.226,-12379.615,-12367.924,-12332.636,-12331.269,-12348.876,-12354.137,-12366.408,-12394.258,-12387.648,-12359.542,-12351.859,-12326.252,-12303.153,-12320.822,-12351.018,-12373.215,-12384.819,-12392.676,-12387.59,-12368.076,-12363.784,-12390.648,-12407.134,-12445.98,-12511.167,-12468.139,-12392.3955,-12377.423,-12397.23,-12425.187,-12356.836,-12296.278,-12325.383,-12348.99,-12355.26,-12332.98,-12332.337,-12357.208,-12349.48,-12323.8545,-12321.333,-12360.379,-12354.585,-12318.039,-12340.827,-12375.724,-12375.795,-12355.885,-12363.044,-12391.543,-12401.721,-12422.82,-12430.208,-12392.018,-12360.839,-12343.027,-12330.691,-12338.4795,-12345.748,-12348.466,-12371.456,-12399.111,-12385.023,-12354.779,-12354.168,-12361.186,-12366.506,-12376.821,-12392.206,-12412.8955,-12403.566,-12340.8545,-12287.901,-12327.583,-12413.242,-12438.439,-12384.954,-12311.52,-12302.285,-12336.234,-12343.494,-12348.251,-12356.122,-12359.455,-12374.434,-12387.618,-12397.518,-12410.889,-12406.412,-12380.307,-12382.826,-12389.942,-12381.161,-12420.059,-12428.13,-12401.164,-12422.54,-12404.582,-12354.288,-12315.434,-12308.256,-12361.126,-12373.798,-12367.004,-12394.053,-12410.784,-12430.6045,-12427.801,-12369.94,-12309.771,-12314.038,-12344.19,-12352.251,-12367.993,-12374.79,-12370.01,-12366.776,-12368.236,-12389.581,-12399.233,-12375.227,-12334.111,-12333.784,-12378.737,-12383.803,-12345.231,-12322.234,-12349.946,-12386.857,-12367.708,-12349.627,-12362.903,-12355.619,-12370.857,-12420.815,-12440.867,-12458.159,-12496.571,-12501.403,-12446.593,-12412.976,-12391.373,-12291.632,-12260.478,-12315.774,-12322.522,-12337.79,-12346.066,-12344.24,-12364.357,-12381.257,-12369.786,-12312.077,-12305.132,-12314.577,-12299.795,-12305.804,-12296.845,-12330.979,-12373.231,-12396.89,-12451.022,-12473.71,-12453.278,-12397.681,-12348.205,-12307.538,-12282.949,-12326.543,-12339.359,-12320.781,-12315.416,-12303.611,-12337.28,-12359.8955,-12334.431,-12332.048,-12354.549,-12359.164,-12337.409,-12326.604,-12325.593,-12319.299,-12321.643,-12330.763,-12351.549,-12396.442,-12431.223,-12415.271,-12401.1045,-12419.722,-12423.3545,-12394.776,-12348.544,-12313.612,-12332.114,-12399.17,-12410.61,-12376.717,-12379.286,-12343.8,-12295.425,-12308.341,-12339.286,-12373.539,-12414.537,-12454.898,-12458.109,-12426.893,-12385.03,-12340.079,-12343.523,-12378.18,-12401.742,-12395.991,-12352.502,-12333.565,-12358.7295,-12378.132,-12364.297,-12358.626,-12371.454,-12350.849,-12368.329,-12395.764,-12339.907,-12320.087,-12323.108,-12317.219,-12369.027,-12389.844,-12378.783,-12388.584,-12373.179,-12332.211,-12318.988,-12331.783,-12335.02,-12349.099,-12349.613,-12335.471,-12356.721,-12374.3955,-12355.295,-12320.167,-12315.892,-12360.545,-12381.702,-12354.458,-12344.298,-12340.683,-12323.261,-12328.208,-12341.304,-12365.653,-12393.382,-12399.43,-12379.381,-12335.265,-12380.238,-12497.108,-12511.426,-12415.22,-12307.034,-12286.941,-12327.575,-12340.459,-12351.797,-12341.519,-12308.324,-12320.148,-12337.79,-12329.244,-12333.241,-12334.592,-12322.344,-12336.151,-12379.053,-12393.804,-12357.628,-12317.417,-12284.929,-12290.742,-12333.409,-12361.039,-12436.533,-12490.972,-12463.301,-12493.495,-12484.542,-12351.948,-12278.883,-12280.268,-12277.084,-12299.875,-12311.702,-12288.982,-12286.694,-12306.537,-12328.8125,-12326.4795,-12299.442,-12279.542,-12272.117,-12283.111,-12298.09,-12306.335,-12311.539,-12313.091,-12324.432,-12327.848,-12310.143,-12299.867,-12309.744,-12348.505,-12422.786,-12485.886,-12484.86,-12421.3545,-12341.468,-12289.076,-12261.695,-12267.078,-12334.484,-12423.877,-12436.755,-12367.241,-12324.014,-12336.503,-12344.843,-12351.896,-12377.651,-12379.346,-12365.546,-12365.664,-12334.43,-12294.092,-12290.438,-12289.953,-12276.989,-12272.354,-12278.379,-12293.233,-12331.86,-12363.381,-12365.802,-12347.737,-12304.116,-12292.827,-12316.846,-12302.315,-12305.841,-12367.863,-12385.831,-12363.323,-12371.426,-12373.412,-12360.343,-12364.656,-12393.787,-12401.915,-12323.396,-12252.951,-12301.742,-12403.366,-12427.923,-12359.209,-12326.508,-12334.994,-12306.256,-12295.595,-12313.671,-12310.038,-12319.181,-12380.561,-12447.618,-12459.005,-12413.115,-12380.855,-12368.918,-12299.91,-12244.476,-12250.484,-12271.366,-12303.385,-12297.166,-12290.527,-12305.7705,-12302.234,-12322.488,-12337.722,-12341.637,-12357.282,-12365.788,-12389.403,-12393.306,-12347.982,-12312.804,-12334.274,-12360.999,-12328.707,-12323.076,-12383.005,-12371.209,-12303.684,-12344.853,-12447.846,-12445.465,-12354.84,-12293.606,-12275.691,-12264.744,-12277.384,-12322.894,-12348.124,-12355.671,-12369.639,-12349.949,-12363.32,-12447.833,-12478.996,-12416.404,-12306.165,-12226.021,-12247.688,-12291.862,-12286.865,-12286.229,-12309.696,-12338.749,-12357.429,-12374.432,-12413.75,-12433.558,-12416.164,-12375.388,-12326.748,-12306.596,-12283.96,-12262.002,-12271.895,-12271.325,-12272.46,-12284.521,-12274.289,-12303.889,-12395.455,-12439.796,-12407.671,-12377.566,-12389.602,-12393.721,-12344.47,-12326.1455,-12345.289,-12307.071,-12274.929,-12276.64,-12261.814,-12261.889,-12275.324,-12288.264,-12295.051,-12299.922,-12324.63,-12367.824,-12394.485,-12344.344,-12292.581,-12314.266,-12384.83,-12491.683
-12497.85,-12414.532,-12383.239,-12285.883,-12194.192,-12268.55,-12320.324,-12304.266,-12294.406,-12287.767,-12304.519,-12300.191,-12310.143,-12321.072,-12290.471,-12258.984,-12227.294,-12243.377,-12273.708,-12273.764,-12268.561,-12271.833,-12287.571,-12256.533,-12252.3545,-12326.696,-12371.995,-12376.558,-12401.038,-12471.247,-12485.445,-12409.341,-12352.204,-12287.6455,-12245.932,-12275.455,-12275.906,-12270.661,-12268.452,-12248.06,-12251.419,-12232.08,-12226.223,-12259.712,-12278.873,-12323.659,-12359.662,-12362.178,-12408.744,-12428.004,-12376.128,-12364.721,-12383.593,-12398.368,-12381.599,-12280.047,-12219.883,-12251.344,-12262.619,-12248.52,-12262.255,-12290.866,-12286.04,-12269.713,-12278.767,-12367.552,-12515.798,-12531.201,-12385.85,-12238.4,-12198.899,-12242.207,-12254.965,-12252.136,-12280.869,-12291.953,-12281.729,-12284.535,-12292.487,-12291.071,-12278.284,-12287.898,-12361.506,-12423.722,-12388.364,-12317.736,-12291.699,-12283.606,-12267.063,-12262.117,-12258.225,-12265.246,-12277.544,-12274.581,-12281.5205,-12283.92,-12294.18,-12317.422,-12322.422,-12319.068,-12302.294,-12277.271,-12250.79,-12253.812,-12298.2705,-12324.83,-12292.974,-12242.51,-12258.955,-12274.05,-12280.56,-12369.988,-12418.049,-12375.086,-12333.988,-12327.471,-12328.196,-12296.881,-12298.142,-12330.819,-12301.265,-12253.932,-12249.8955,-12272.545,-12298.187,-12264.627,-12211.632,-12215.24,-12223.248,-12244.687,-12268.518,-12263.47,-12284.265,-12305.582,-12309.536,-12316.353,-12317.781,-12310.894,-12300.307,-12306.322,-12307.099,-12291.7705,-12274.255,-12255.252,-12274.177,-12328.502,-12339.813,-12297.032,-12323.593,-12448.417,-12491.304,-12395.584,-12314.111,-12293.031,-12280.062,-12299.014,-12331.705,-12355.989,-12393.983,-12366.275,-12281.181,-12246.09,-12232.431,-12215.734,-12217.8955,-12221.604,-12230.39,-12234.498,-12223.82,-12223.766,-12235.97,-12250.215,-12263.612,-12273.276,-12277.756,-12284.686,-12298.997,-12301.495,-12293.077,-12288.263,-12283.535,-12274.595,-12260.015,-12249.432,-12249.797,-12253.405,-12253.608,-12262.761,-12283.039,-12297.7295,-12320.858,-12348.095,-12348.885,-12330.618,-12330.079,-12336.047,-12295.369,-12263.487,-12280.334,-12287.967,-12289.703,-12275.877,-12249.537,-12255.004,-12273.72,-12290.3,-12290.825,-12263.916,-12244.965,-12241.645,-12243.038,-12266.293,-12291.386,-12294.203,-12277.09,-12254.093,-12276.511,-12301.319,-12294.006,-12311.871,-12310.003,-12288.433,-12296.504,-12303.525,-12296.164,-12254.916,-12227.1875,-12267.581,-12296.84,-12291.386,-12288.197,-12299.661,-12325.216,-12326.892,-12305.13,-12268.399,-12249.002,-12255.848,-12249.054,-12267.08,-12269.569,-12250.25,-12257.325,-12258.009,-12288.763,-12322.905,-12333.969,-12313.751,-12267.027,-12276.941,-12256.347,-12207.919,-12245.3,-12287.095,-12271.638,-12248.282,-12256.1,-12283.216,-12320.708,-12336.12,-12318.165,-12315.812,-12322.7,-12321.692,-12297.851,-12299.037,-12333.503,-12308.573,-12289.369,-12293.351,-12262.455,-12244.119,-12231.093,-12227.203,-12245.4,-12280.63,-12319.693,-12323.314,-12326.558,-12322.106,-12286.602,-12247.335,-12219.853,-12257.577,-12341.539,-12359.829,-12282.99,-12212.322,-12204.353,-12210.084,-12228.916,-12261.812,-12279.851,-12292.091,-12307.415,-12327.45,-12361.399,-12387.66,-12368.782,-12334.406,-12307.644,-12284.012,-12297.803,-12301.622,-12254.168,-12230.811,-12240.245,-12237.117,-12233.277,-12260.718,-12293.221,-12277.706,-12252.838,-12253.731,-12259.826,-12272.619,-12287.302,-12289.098,-12262.404,-12256.348,-12305.696,-12301.445,-12247.627,-12271.85,-12332.903,-12342.968,-12314.247,-12289.8545,-12295.864,-12290.161,-12271.849,-12272.12,-12251.767,-12257.504,-12317.732,-12324.107,-12259.705,-12207.893,-12206.897,-12239.468,-12266.954,-12263.131,-12248.433,-12250.977,-12264.717,-12272.745,-12270.714,-12265.942,-12266.045,-12291.966,-12310.229,-12295.338,-12303.351,-12309.587,-12309.354,-12327.38,-12303.959,-12304.4795,-12367.93,-12395.7705,-12382.482,-12346.632,-12323.938,-12316.842,-12276.711,-12277.8955,-12306.608,-12283.433,-12283.109,-12320.666,-12332.337,-12330.925,-12335.992,-12306.07,-12220.975,-12162.381,-12188.249,-12232.17,-12258.773,-12314.384,-12379.542,-12374.786,-12323.711,-12317.797,-12290.711,-12222.6455,-12232.589,-12252.517,-12243.874,-12254.052,-12257.114,-12290.053,-12319.3,-12305.808,-12281.41,-12261.944,-12275.603,-12269.469,-12230.974,-12217.528,-12222.936,-12231.842,-12235.523,-12244.597,-12249.442,-12237.826,-12240.847,-12240.968,-12230.019,-12246.955,-12269.524,-12285.347,-12328.323,-12328.746,-12267.012,-12286.724,-12358.539,-12355.475,-12297.495,-12208.854,-12166.557,-12225.956,-12258.597,-12237.183,-12267.179,-12297.365,-12268.197,-12260.615,-12269.657,-12258.076,-12260.742,-12261.413,-12256.604,-12266.588,-12265.162,-12224.3125,-12166.004,-12161.604,-12204.083,-12215.992,-12215.948,-12246.325,-12259.933,-12248.636,-12283.9375,-12345.677,-12342.373,-12306.605,-12299.252,-12295.527,-12293.356,-12283.588,-12258.065,-12239.847,-12239.872,-12257.987,-12258.596,-12246.365,-12236.645,-12235.078,-12279.168,-12313.9795,-12289.347,-12270.95,-12302.0205,-12337.01,-12314.257,-12262.76,-12259.479,-12270.202,-12247.599,-12244.776,-12270.67,-12283.237,-12238.273,-12182.998,-12202.318,-12227.165,-12239.7295,-12263.254,-12265.4795,-12272.4795,-12272.936,-12270.674,-12290.102,-12295.4795,-12285.71,-12281.913,-12291.697,-12335.017,-12376.373,-12339.598,-12281.197,-12267.27,-12252.708,-12236.574,-12232.85,-12251.612,-12293.482,-12307.412,-12297.811,-12293.874,-12268.267,-12229.866,-12221.588,-12239.593,-12275.6045,-12301.166,-12292.689,-12276.182,-12280.093,-12328.898,-12366.877,-12339.601,-12308.075,-12316.077,-12323.74,-12310.46,-12301.525,-12271.474,-12253.175,-12297.026,-12317.997,-12303.343,-12304.679,-12303.946,-12296.435,-12278.02,-12249.288,-12248.466,-12256.986,-12240.892,-12234.836,-12245.271,-12248.141,-12248.077,-12258.461,-12269.963,-12280.912,-12308.723,-12320.589,-12295.382,-12268.558,-12283.131,-12322.928,-12319.883,-12309.585,-12333.416,-12327.368,-12283.286,-12250.524,-12240.84,-12245.532,-12260.207,-12274.179,-12287.626,-12302.803,-12310.124,-12331.199,-12366.524,-12371.34,-12311.777,-12238.834,-12243.382,-12267.783,-12261.642,-12267.846,-12267.718,-12272.791,-12278.3955,-12254.006,-12242.433,-12252.196,-12269.991,-12287.658,-12285.9,-12276.286,-12270.2,-12268.145,-12271.855,-12292.804,-12329.333,-12322.015,-12270.521,-12270.82,-12322.448,-12355.571,-12348.619,-12291.515,-12240.387,-12262.658,-12302.378,-12290.747,-12257.46,-12245.504,-12254.826,-12280.827,-12295.343,-12287.572,-12276.985,-12252.781,-12239.31,-12247.042,-12244.572,-12252.321,-12272.613,-12290.765,-12310.57,-12305.085,-12279.92,-12289.014,-12316.922,-12289.3125,-12249.285,-12266.314,-12271.878,-12262.816,-12296.928,-12337.85,-12342.227,-12288.8955,-12231.31,-12240.421,-12257.633,-12248.572,-12265.647,-12289.413,-12293.105,-12321.127,-12368.543,-12370.33,-12314.607,-12275.215,-12279.356,-12278.11,-12257.79,-12236.115,-12245.244,-12270.753,-12297.302,-12338.374,-12332.658,-12276.366,-12250.623,-12276.995,-12307.898,-12307.292,-12294.305,-12315.443,-12376.712,-12384.031,-12332.879,-12279.927,-12222.134,-12222.28,-12248.725,-12256.132,-12278.44,-12281.182,-12284.574,-12294.565,-12307.228,-12337.781,-12342.225,-12342.959,-12344.294,-12298.174,-12239.766,-12236.389,-12261.77,-12261.889,-12257.735,-12262.761,-12276.049,-12286.98,-12288.891,-12304.776,-12318.904,-12312.965,-12298.923,-12285.665,-12293.921,-12317.515,-12320.582,-12348.893,-12395.491,-12375.993,-12318.829,-12251.908,-12226.721,-12258.824,-12252.037,-12256.98,-12309.423,-12332.937,-12340.864,-12373.874,-12418.6455,-12412.463,-12342.687,-12278.268,-12248.008,-12245.596,-12262.889,-12262.745,-12256.202,-12270.268,-12268.843,-12263.667,-12267.35,-12268.498,-12282.47,-12284.988,-12283.997,-12293.024,-12305.24,-12333.825,-12338.593,-12296.36,-12258.566,-12273.08,-12315.602,-12351.886,-12360.232,-12320.882,-12284.135,-12251.534,-12227.399,-12231.427,-12221.598,-12252.512,-12318.843,-12350.368,-12327.092,-12281.118,-12301.427,-12302.72,-12272.206,-12295.967,-12293.695,-12263.186,-12233.439,-12215.973,-12237.038,-12260.867,-12273.402,-12276.848,-12292.011,-12310.105,-12301.505,-12301.051,-12325.774,-12342.808,-12327.329,-12287.866,-12268.319,-12301.178,-12320.625,-12277.061,-12245.413,-12254.232,-12274.6875,-12299.297,-12294.54,-12278.596,-12296.722,-12301.898,-12280.807,-12288.933,-12329.13,-12354.579,-12332.391,-12310.083,-12326.349,-12350.427,-12351.311,-12302.833,-12270.784,-12301.264,-12312.646,-12294.135,-12270.458,-12275.811,-12351.082,-12397.465,-12356.745,-12315.446,-12320.707,-12328.869,-12304.769,-12276.925,-12263.775,-12278.911,-12306.882,-12302.05,-12304.098,-12319.675,-12314.371,-12304.441,-12283.051,-12272.349,-12291.826,-12322.414,-12337.929,-12300.468,-12263.358,-12272.63,-12287.184,-12282.51,-12279.23,-12303.321,-12311.439,-12311.46,-12321.165,-12304.897,-12305.72,-12299.6045,-12274.276,-12281.38,-12285.957,-12292.131,-12304.171,-12305.461,-12302.055,-12288.793,-12284.183,-12289.772,-12304.682,-12304.19,-12285.343,-12319.817,-12391.947,-12420.465,-12384.791,-12342.574,-12324.836,-12304.38,-12312.841,-12331.533,-12320.985,-12319.133,-12309.396,-12303.256,-12314.2,-12291.329,-12260.19,-12256.883,-12272.584,-12288.703,-12301.244,-12311.518,-12294.028,-12275.664,-12279.938,-12283.306,-12290.971,-12298.201,-12293.393,-12284.242,-12281.208,-12289.811,-12304.68,-12316.018,-12310.232,-12306.125,-12324.082,-12324.733,-12305.179,-12305.186,-12301.957,-12283.522,-12286.858,-12311.977,-12324.446,-12327.325,-12323.238,-12276.4375,-12250.779,-12284.323,-12305.191,-12316.093,-12305.735,-12285.261,-12289.853,-12293.502,-12316.722,-12330.465,-12312.822,-12294.21,-12276.172,-12291.8125,-12327.465,-12336.847,-12314.855,-12286.82,-12274.646,-12288.88,-12316.801,-12307.029,-12299.495,-12319.169,-12317.251,-12299.107,-12281.24,-12292.8125,-12310.832,-12311.923,-12320.328,-12318.066,-12300.819,-12276.506,-12281.743,-12308.991,-12312.763,-12318.446,-12327.903,-12326.159,-12305.701,-12307.629,-12330.293,-12299.301,-12281.032,-12298.457,-12300.663,-12302.68,-12285.479,-12282.149,-12316.634,-12333.753,-12328.061,-12320.922,-12312.97,-12288.268,-12274.891,-12303.937,-12325.157,-12326.598,-12355.647,-12415.771,-12432.124,-12374.918,-12341.537,-12341.355,-12324.367,-12298.506,-12276.682,-12289.127,-12289.464,-12287.238,-12314.643,-12304.884,-12309.306,-12324.237,-12311.509,-12321.645,-12317.154,-12297.814,-12304.079,-12331.27,-12341.396,-12340.547,-12369.401,-12357.0625,-12310.629,-12289.763,-12289.622,-12341.694,-12383.823,-12350.648,-12300.833,-12299.662,-12337.097,-12348.978,-12355.054,-12370.823,-12366.383,-12344.212,-12282.669,-12233.57,-12263.928,-12324.791,-12351.512,-12350.219,-12373.3,-12412.03,-12414.332,-12360.521,-12324.263,-12340.938,-12328.172,-12305.222,-12293.702,-12286.895,-12299.271,-12301.065,-12309.5625,-12305.859,-12299.532,-12306.781,-12305.886,-12367.714,-12429.3545,-12406.093,-12355.431,-12294.287,-12266.012,-12284.751,-12306.424,-12328.098,-12325.282,-12316.553,-12329.213,-12327.098,-12313.685,-12309.093,-12323.533,-12346.555,-12331.337,-12270.755,-12249.112,-12312.144,-12355.796,-12340.446,-12307.703,-12294.585,-12335.971,-12347.997,-12341.528,-12366.716,-12352.81,-12349.221,-12370.888,-12356.66,-12337.797,-12342.903,-12391.373,-12436.043,-12362.75,-12247.933,-12237.676,-12269.471,-12293.629,-12298.717,-12278.583,-12298.683,-12313.422,-12309.345,-12323.657,-12339.689,-12358.397,-12365.608,-12373.556,-12371.882,-12351.539,-12315.807,-12281.195,-12297.395,-12315.942,-12318.982,-12326.821,-12327.902,-12339.111,-12339.758,-12342.372,-12359.77,-12354.43,-12346.324,-12349.763,-12332.094,-12292.198,-12268.269,-12290.906,-12332.924,-12335.87,-12313.41,-12287.616,-12255.437,-12250.246,-12273.815,-12328.526,-12373.652,-12353.691,-12329.901,-12325.509,-12326.537,-12330.416,-12320.507,-12316.158,-12313.996,-12298.688,-12279.755,-12288.259,-12330.715,-12349.543,-12324.82,-12325.784,-12383.295,-12417.395,-12384.742,-12334.57,-12326.099,-12324.533,-12277.497,-12267.053,-12297.295,-12307.575,-12308.052,-12300.99,-12316.342,-12326.318,-12326.958,-12349.366,-12331.738,-12294.912,-12291.274,-12317.911,-12327.3,-12275.237,-12241.289,-12262.157,-12288.767,-12291.173,-12270.783,-12267.83,-12280.949,-12299.011,-12322.604,-12325.874,-12327.336,-12337.676,-12329.337,-12313.874,-12301.675,-12301.506,-12321.766,-12329.43,-12313.625,-12301.356,-12310.082,-12320.629,-12309.62,-12297.027,-12304.721,-12315.988,-12309.323,-12303.635,-12306.326,-12313.538,-12336.481,-12346.589,-12333.482,-12322.453,-12322.17,-12328.281,-12334.007,-12343.961,-12348.615,-12334.708,-12309.564,-12286.583,-12275.055,-12280.125,-12323.517,-12403.4795,-12424.756,-12346.119,-12294.9795,-12307.941,-12308.715,-12317.186,-12346.314,-12361.233,-12341.914,-12300.95,-12278.641,-12274.633,-12290.756,-12307.118,-12296.083,-12299.986,-12308.066,-12299.719,-12299.72,-12299.423,-12302.675,-12310.167,-12313.131,-12314.213,-12310.068,-12307.748,-12304.547,-12297.539,-12299.62,-12311.1455,-12324.56,-12339.716,-12352.284,-12352.751,-12343.186,-12343.788
-12361.127,-12359.092,-12327.581,-12304.339,-12314.195,-12361.595,-12393.628,-12359.223,-12320.148,-12313.696,-12304.538,-12298.731,-12301.832,-12310.207,-12313.922,-12302.187,-12302.344,-12306.217,-12295.482,-12289.727,-12301.831,-12312.989,-12299.3125,-12296.559,-12323.221,-12337.701,-12330.489,-12319.281,-12307.409,-12296.923,-12301.314,-12319.531,-12345.28,-12377.744,-12372.842,-12313.066,-12269.509,-12279.314,-12323.902,-12363.176,-12349.803,-12324.7705,-12317.867,-12303.595,-12302.703,-12313.285,-12323.818,-12327.567,-12319.18,-12319.575,-12320.3125,-12330.857,-12352.04,-12357.879,-12364.793,-12370.816,-12364.183,-12351.914,-12324.559,-12315.151,-12381.732,-12438.62,-12378.915,-12314.376,-12333.731,-12363.185,-12364.765,-12350.062,-12342.524,-12328.392,-12301.579,-12300.267,-12299.801,-12305.496,-12324.525,-12315.552,-12306.232,-12317.181,-12343.523,-12363.36,-12353.619,-12349.64,-12344.464,-12334.821,-12349.206,-12347.878,-12344.02,-12410.851,-12488.112,-12454.706,-12357.152,-12319.578,-12329.007,-12320.199,-12288.947,-12262.962,-12277.145,-12310.253,-12327.326,-12349.019,-12356.224,-12337.118,-12318.404,-12292.373,-12282.3,-12285.776,-12281.416,-12290.129,-12303.258,-12312.588,-12312.635,-12315.083,-12329.173,-12337.065,-12338.324,-12313.166,-12298.762,-12327.383,-12332.929,-12323.877,-12330.929,-12325.556,-12320.916,-12325.993,-12327.481,-12338.059,-12354.839,-12369.879,-12387.441,-12373.442,-12321.384,-12292.498,-12296.418,-12304.472,-12320.752,-12342.922,-12361.843,-12364.6,-12343.13,-12318.994,-12303.319,-12297.502,-12301.034,-12308.276,-12324.577,-12336.325,-12336.165,-12325.467,-12297.156,-12273.542,-12283.735,-12327.026,-12345.9375,-12325.775,-12323.128,-12325.009,-12326.825,-12345.789,-12352.174,-12344.932,-12326.825,-12319.845,-12350.73,-12367.411,-12334.92,-12304.569,-12325.455,-12353.513,-12347.517,-12340.892,-12333.2295,-12325.272,-12326.926,-12321.874,-12324.914,-12327.298,-12326.251,-12340.96,-12341.509,-12327.192,-12337.519,-12348.321,-12317.697,-12292.259,-12302.284,-12321.118,-12353.132,-12383.792,-12371.846,-12322.442,-12310.536,-12337.785,-12331.234,-12319.36,-12320.356,-12323.168,-12339.433,-12345.423,-12346.285,-12341.419,-12322.084,-12298.269,-12286.798,-12310.11,-12339.794,-12363.453,-12383.056,-12388.077,-12380.671,-12357.466,-12345.625,-12336.857,-12325.933,-12342.766,-12355.467,-12359.539,-12364.582,-12354.506,-12339.628,-12327.654,-12329.718,-12335.2295,-12323.291,-12310.902,-12324.251,-12340.139,-12312.288,-12284.765,-12295.822,-12302.9795,-12305.424,-12321.133,-12329.869,-12321.991,-12316.97,-12318.59,-12327.157,-12340.503,-12325.506,-12312.631,-12343.682,-12364.27,-12351.402,-12339.701,-12326.272,-12307.45,-12291.595,-12278.806,-12298.559,-12345.354,-12381.751,-12405.175,-12399.365,-12374.104,-12349.311,-12335.131,-12361.139,-12381.393,-12364.266,-12351.517,-12342.636,-12333.121,-12342.937,-12361.244,-12361.462,-12340.542,-12305.081,-12286.785,-12297.665,-12296.232,-12285.318,-12284.6455,-12302.566,-12336.221,-12351.545,-12348.97,-12346.365,-12358.947,-12389.414,-12406.548,-12399.443,-12370.885,-12332.641,-12324.089,-12337.141,-12340.917,-12336.804,-12312.807,-12298.757,-12310.075,-12317.156,-12354.888,-12385.512,-12355.228,-12336.304,-12332.945,-12316.946,-12328.599,-12348.051,-12341.986,-12338.415,-12348.047,-12346.801,-12331.846,-12325.765,-12325.464,-12325.633,-12330.462,-12327.072,-12322.15,-12322.727,-12321.679,-12326.559,-12336.204,-12333.291,-12331.061,-12349.232,-12354.384,-12347.634,-12358.116,-12352.735,-12332.974,-12327.575,-12324.336,-12333.729,-12341.722,-12326.571,-12326.407,-12329.771,-12320.516,-12323.915,-12342.517,-12386.752,-12413.523,-12377.423,-12317.327,-12291.795,-12333.437,-12372.983,-12368.352,-12371.559,-12361.08,-12336.282,-12333.111,-12325.73,-12324.127,-12332.487,-12329.943,-12349.233,-12386.526,-12381.6875,-12341.508,-12327.385,-12331.065,-12321.242,-12324.119,-12342.842,-12347.97,-12343.58,-12347.525,-12353.215,-12352.346,-12348.228,-12339.666,-12334.79,-12342.092,-12351.284,-12355.566,-12348.195,-12332.178,-12331.159,-12334.103,-12336.963,-12357.241,-12366.118,-12356.517,-12343.703,-12338.57,-12357.397,-12375.446,-12383.437,-12387.354,-12369.38,-12335.293,-12317.323,-12331.561,-12361.546,-12393.894,-12409.275,-12395.435,-12368.333,-12345.639,-12337.493,-12331.372,-12334.001,-12340.022,-12325.519,-12322.098,-12339.631,-12342.763,-12326.267,-12327.304,-12342.406,-12346.335,-12364.982,-12379.611,-12369.716,-12352.814,-12332.536,-12328.836,-12323.184,-12301.052,-12310.0625,-12359.407,-12383.97,-12361.844,-12353.392,-12347.868,-12327.344,-12332.846,-12336.291,-12331.019,-12345.643,-12367.742,-12380.387,-12366.776,-12352.547,-12368.169,-12396.472,-12409.796,-12404.208,-12396.093,-12390.795,-12381.278,-12350.611,-12333.4,-12355.415,-12357.414,-12338.118,-12342.487,-12364.373,-12362.875,-12333.893,-12331.051,-12343.754,-12337.635,-12331.535,-12336.104,-12352.603,-12369.006,-12377.087,-12375.173,-12370.388,-12392.066,-12413.721,-12385.598,-12340.044,-12347.688,-12382.582,-12385.557,-12374.805,-12348.703,-12332.94,-12355.663,-12382.182,-12403.515,-12383.628,-12353.184,-12347.904,-12336.196,-12355.294,-12367.417,-12353.772,-12352.007,-12341.041,-12342.525,-12350.378,-12360.218,-12379.354,-12392.927,-12409.378,-12410.435,-12405.249,-12395.109,-12372.142,-12367.43,-12361.142,-12354.369,-12356.312,-12331.227,-12324.025,-12359.988,-12365.088,-12345.533,-12355.237,-12373.053,-12401.474,-12444.311,-12438.224,-12382.515,-12333.793,-12323.154,-12347.476,-12366.016,-12360.832,-12354.456,-12367.697,-12402.113,-12425.824,-12406.036,-12382.81,-12372.838,-12346.0625,-12342.653,-12358.98,-12373.112,-12381.483,-12351.86,-12350.694,-12386.45,-12400.208,-12403.408,-12380.716,-12362.207,-12362.851,-12360.379,-12377.227,-12389.34,-12390.486,-12392.704,-12385.011,-12377.35,-12376.243,-12376.708,-12366.774,-12362.983,-12395.401,-12430.217,-12423.337,-12403.305,-12382.059,-12366.23,-12385.542,-12403.202,-12406.66,-12399.465,-12374.784,-12362.969,-12357.18,-12354.469,-12362.131,-12374.103,-12371.258,-12339.86,-12327.942,-12335.607,-12356.237,-12394.427,-12374.083,-12317.467,-12313.125,-12359.461,-12386.022,-12353.964,-12347.384,-12379.224,-12390.393,-12389.524,-12379.084,-12374.81,-12372.284,-12365.333,-12362.549,-12351.183,-12362.166,-12375.606,-12362.034,-12358.4,-12352.6,-12354.217,-12379.276,-12377.874,-12371.372,-12393.8,-12393.843,-12372.252,-12370.753,-12376.046,-12376.351,-12373.515,-12377.554,-12402.41,-12413.1875,-12391.998,-12371.922,-12372.15,-12372.971,-12356.038,-12354.45,-12369.316,-12375.812,-12372.239,-12360.433,-12365.703,-12372.542,-12368.112,-12368.857,-12377.464,-12401.766,-12421.941,-12429.57,-12407.342,-12375.61,-12384.406,-12381.771,-12370.412,-12389.153,-12397.972,-12384.253,-12373.616,-12376.264,-12365.902,-12370.9795,-12413.467,-12428.117,-12403.418,-12357.294,-12345.027,-12390.335,-12397.805,-12374.535,-12375.628,-12394.424,-12413.576,-12398.55,-12380.97,-12382.55,-12383.981,-12377.822,-12363.806,-12390.574,-12423.525,-12408.788,-12391.072,-12384.066,-12385.484,-12381.615,-12356.861,-12338.162,-12349.623,-12381.184,-12404.891,-12436.039,-12452.189,-12416.609,-12389.963,-12388.636,-12381.97,-12372.821,-12371.236,-12385.771,-12382.368,-12352.515,-12336.641,-12353.622,-12387.615,-12392.441,-12377.817,-12381.51,-12384.299,-12376.554,-12378.249,-12386.445,-12374.042,-12345.168,-12332.675,-12338.518,-12344.792,-12360.342,-12385.015,-12389.407,-12372.951,-12346.021,-12319.365,-12297.203,-12287.003,-12332.779,-12386.091,-12367.051,-12314.746,-12271.501,-12250.571,-12258.061,-12277.831,-12287.579,-12269.329,-12251.508,-12254.989,-12247.824,-12211.776,-12187.958,-12199.156,-12198.0625,-12194.22,-12204.204,-12189.092,-12166.697,-12156.761,-12152.108,-12154.375,-12155.562,-12148.369,-12130.372,-12115.498,-12111.211,-12112.933,-12114.346,-12109.525,-12111.742,-12110.445,-12099.886,-12095.74,-12086.837,-12088.784,-12098.209,-12082.457,-12077.222,-12087.82,-12077.563,-12065.366,-12050.922,-12030.768,-12026.704,-12019.702,-12012.845,-12028.768,-12070.918,-12107.823,-12084.732,-12045.905,-12036.577,-12037.023,-12035.996,-12018.734,-12009.026,-12012.197,-12022.427,-12036.314,-12033.145,-12053.955,-12088.876,-12089.1,-12062.692,-12022.546,-11997.204,-12000.792,-12005.206,-11999.121,-12009.909,-12038.112,-12059.357,-12054.13,-12032.614,-12036.971,-12045.723,-12034.6045,-12028.644,-12040.839,-12055.866,-12059.272,-12066.999,-12079.883,-12102.287,-12115.511,-12103.087,-12076.466,-12031.104,-12026.946,-12069.653,-12111.328,-12128.084,-12093.096,-12076.477,-12096.29,-12112.73,-12130.21,-12130.012,-12110.667,-12083.123,-12080.408,-12091.719,-12083.625,-12082.901,-12089.316,-12101.346,-12120.99,-12137.054,-12140.926,-12134.753,-12133.24,-12135.048,-12143.531,-12146.756,-12148.237,-12161.769,-12172.707,-12179.635,-12179.505,-12170.275,-12154.661,-12153.139,-12170.271,-12172.601,-12173.437,-12203.848,-12258.946,-12300.144,-12298.742,-12261.383,-12196.079,-12157.879,-12187.423,-12212.329,-12185.661,-12155.569,-12165.212,-12198.227,-12205.5,-12209.61,-12221.441,-12201.412,-12200.999,-12212.845,-12198.518,-12195.104,-12188.338,-12189.9795,-12203.93,-12204.768,-12212.819,-12224.085,-12231.974,-12239.277,-12250.03,-12249.783,-12234.409,-12238.944,-12248.901,-12238.125,-12215.139,-12215.648,-12242.999,-12253.851,-12259.571,-12263.987,-12250.339,-12234.211,-12229.776,-12243.505,-12251.015,-12254.53,-12299.385,-12342.772,-12330.192,-12312.834,-12302.895,-12288.668,-12288.032,-12290.487,-12314.662,-12320.023,-12279.568,-12259.807,-12244.782,-12226.001,-12237.189,-12278.447,-12319.605,-12319.591,-12291.381,-12259.439,-12256.07,-12287.779,-12318.9,-12322.313,-12297.852,-12290.857,-12289.763,-12287.898,-12307.387,-12316.105,-12310.141,-12291.774,-12287.305,-12299.053,-12289.6875,-12294.433,-12309.734,-12315.461,-12322.839,-12313.372,-12296.405,-12295.185,-12313.124,-12325.304,-12308.516,-12297.781,-12325.092,-12351.839,-12350.3545,-12346.271,-12330.565,-12312.9375,-12319.64,-12320.403,-12321.038,-12331.866,-12332.938,-12325.8955,-12314.202,-12311.732,-12328.162,-12349.989,-12352.895,-12344.326,-12349.135,-12357.5,-12367.13,-12359.371,-12342.682,-12364.89,-12388.566,-12382.717,-12366.836,-12354.794,-12348.196,-12336.35,-12351.156,-12371.499,-12359.415,-12350.694,-12336.16,-12332.098,-12377.192,-12423.75,-12426.442,-12399.119,-12364.232,-12338.5205,-12342.415,-12337.686,-12324.979,-12336.958,-12342.797,-12366.715,-12374.15,-12348.586,-12361.018,-12378.957,-12391.632,-12382.218,-12359.767,-12369.742,-12369.434,-12374.315,-12382.481,-12369.878,-12350.968,-12350.941,-12385.628,-12398.916,-12426.177,-12448.031,-12401.402,-12388.199,-12396.357,-12384.648,-12387.639,-12372.091,-12355.661,-12367.161,-12370.018,-12367.408,-12378.605,-12379.2295,-12374.898,-12367.365,-12355.845,-12370.563,-12383.77,-12383.83,-12404.115,-12434.362,-12417.341,-12379.936,-12408.006,-12430.856,-12400.247,-12381.774,-12393.247,-12420.965,-12414.826,-12388.439,-12397.886,-12405.247,-12396.318,-12385.73,-12365.598,-12371.049,-12396.477,-12391.515,-12381.029,-12382.829,-12382.152,-12397.823,-12414.255,-12409.971,-12406.421,-12403.549,-12403.01,-12415.688,-12433.7,-12447.055,-12416.721,-12368.2705,-12388.351,-12457.956,-12496.375,-12455.918,-12402.187,-12405.214,-12409.408,-12411.961,-12422.647,-12393.51,-12365.705,-12389.555,-12418.166,-12432.325,-12439.676,-12411.349,-12382.249,-12379.407,-12387.21,-12400.023,-12390.552,-12385.826,-12397.9375,-12394.793,-12391.874,-12405.453,-12417.208,-12408.667,-12414.657,-12446.257,-12456.657,-12428.415,-12401.874,-12411.037,-12424.798,-12427.059,-12416.22,-12407.077,-12412.97,-12411.522,-12430.252,-12448.187,-12425.723,-12412.153,-12442.484,-12473.338,-12437.024,-12410.291,-12459.744,-12484.084,-12469.543,-12469.574,-12459.673,-12427.766,-12404.723,-12403.33,-12404.2705,-12395.361,-12390.923,-12403.578,-12409.532,-12405.018,-12407.459,-12411.155,-12418.384,-12417.93,-12409.331,-12406.283,-12406.407,-12411.556,-12405.502,-12382.906,-12386.059,-12428.462,-12454.025,-12458.469,-12461.508,-12440.707,-12424.314,-12422.562,-12417.609,-12417.746,-12424.646,-12433.152,-12428.0,-12425.963,-12433.026,-12429.369,-12431.036,-12434.583,-12427.873,-12428.748,-12432.873,-12434.312,-12448.989,-12455.152,-12437.709,-12431.827,-12455.686,-12480.364,-12466.127,-12437.762,-12433.665,-12440.554,-12438.469,-12416.108,-12400.941,-12403.8545,-12396.071,-12384.584,-12393.767,-12445.548,-12498.794,-12497.742,-12480.182,-12452.091,-12405.023,-12388.609,-12397.052,-12405.051,-12402.363,-12394.811,-12414.271,-12430.617,-12428.243,-12432.833,-12430.613,-12415.604,-12402.05,-12411.723,-12439.937,-12457.544,-12458.89,-12443.826,-12423.609,-12423.534,-12435.945,-12428.086,-12416.909,-12425.692,-12435.386,-12442.887,-12435.722,-12418.986,-12426.106,-12441.391,-12437.708,-12423.923,-12429.124,-12434.208,-12428.333,-12452.764,-12463.556,-12436.506,-12432.596,-12445.671,-12435.573,-12413.421,-12419.004,-12437.103,-12433.983,-12427.23,-12430.293,-12436.66,-12437.553,-12439.389,-12443.109,-12434.966,-12426.783,-12435.356,-12452.332,-12460.527,-12459.856,-12449.35,-12425.708
-12420.923,-12438.935,-12430.687,-12420.986,-12435.622,-12432.174,-12451.571,-12499.879,-12496.075,-12465.893,-12457.826,-12451.778,-12443.734,-12429.54,-12402.845,-12398.843,-12417.792,-12434.133,-12441.918,-12431.91,-12416.019,-12406.322,-12432.947,-12476.556,-12469.211,-12447.93,-12442.819,-12438.913,-12446.378,-12452.974,-12447.18,-12433.931,-12433.26,-12446.551,-12453.585,-12458.266,-12451.033,-12434.337,-12434.958,-12438.039,-12433.566,-12434.717,-12433.389,-12430.68,-12436.743,-12445.656,-12445.279,-12441.565,-12453.88,-12457.767,-12437.667,-12432.135,-12439.938,-12438.504,-12433.222,-12438.89,-12459.469,-12464.478,-12449.239,-12438.228,-12433.457,-12424.847,-12415.196,-12428.138,-12445.225,-12438.41,-12432.567,-12437.796,-12452.91,-12485.333,-12512.835,-12505.713,-12465.332,-12441.874,-12460.675,-12475.192,-12464.948,-12437.965,-12423.716,-12434.479,-12426.346,-12419.789,-12431.329,-12436.264,-12442.181,-12445.051,-12439.223,-12416.862,-12408.407,-12431.483,-12431.731,-12422.583,-12437.947,-12457.406,-12466.678,-12455.782,-12441.633,-12437.222,-12426.061,-12430.49,-12460.33,-12499.027,-12555.541,-12564.806,-12495.322,-12445.105,-12424.566,-12422.124,-12442.015,-12432.569,-12425.042,-12420.3545,-12417.304,-12452.43,-12459.793,-12455.332,-12461.927,-12444.748,-12442.653,-12448.059,-12443.734,-12431.146,-12425.868,-12455.411,-12474.285,-12470.135,-12463.528,-12447.849,-12435.699,-12434.83,-12440.856,-12447.619,-12456.601,-12457.493,-12443.291,-12447.65,-12465.479,-12454.246,-12427.835,-12428.219,-12436.238,-12426.714,-12424.099,-12424.589,-12439.707,-12465.448,-12449.571,-12429.72,-12426.791,-12426.56,-12449.745,-12463.918,-12475.239,-12493.357,-12488.249,-12477.436,-12457.525,-12441.419,-12445.224,-12441.618,-12433.436,-12433.882,-12462.705,-12507.522,-12516.613,-12485.306,-12448.72,-12438.812,-12444.754,-12439.545,-12434.445,-12448.423,-12470.727,-12473.857,-12462.909,-12462.831,-12461.632,-12451.472,-12448.247,-12447.302,-12447.24,-12444.174,-12444.187,-12472.017,-12494.425,-12484.958,-12460.485,-12443.618,-12468.739,-12490.5625,-12475.157,-12475.224,-12483.669,-12482.0205,-12481.789,-12500.897,-12535.81,-12529.053,-12507.369,-12524.45,-12541.787,-12516.501,-12462.486,-12429.399,-12424.867,-12436.276,-12454.582,-12467.481,-12466.831,-12454.597,-12466.174,-12476.231,-12464.631,-12456.477,-12441.06,-12451.956,-12474.904,-12458.641,-12441.221,-12444.075,-12444.823,-12442.185,-12458.065,-12486.165,-12505.636,-12495.328,-12454.067,-12436.067,-12433.196,-12430.534,-12454.138,-12466.112,-12466.407,-12462.566,-12444.014,-12437.259,-12415.346,-12399.794,-12428.074,-12449.027,-12453.932,-12458.591,-12468.008,-12482.569,-12485.765,-12480.986,-12486.018,-12497.155,-12493.869,-12482.315,-12472.631,-12476.253,-12479.035,-12461.665,-12451.99,-12440.352,-12432.811,-12440.705,-12440.469,-12437.6,-12428.616,-12446.637,-12500.158,-12536.344,-12554.584,-12571.867,-12574.045,-12526.41,-12464.11,-12447.166,-12450.613,-12471.058,-12503.693,-12501.858,-12493.572,-12491.691,-12471.857,-12486.694,-12509.536,-12485.737,-12460.842,-12440.667,-12436.253,-12439.108,-12432.269,-12446.6,-12451.609,-12458.525,-12484.355,-12485.919,-12475.88,-12475.034,-12473.2,-12478.363,-12531.809,-12582.893,-12538.858,-12463.972,-12430.67,-12428.579,-12459.053,-12502.066,-12522.923,-12519.35,-12505.74,-12492.592,-12483.452,-12476.327,-12474.615,-12461.16,-12435.264,-12453.121,-12508.652,-12537.157,-12512.363,-12478.862,-12493.207,-12515.56,-12508.428,-12490.864,-12468.111,-12454.938,-12465.77,-12473.071,-12467.926,-12481.763,-12491.96,-12490.911,-12514.717,-12531.148,-12522.8125,-12506.799,-12470.22,-12456.255,-12497.958,-12532.862,-12527.233,-12497.282,-12483.077,-12489.54,-12480.944,-12482.011,-12497.9375,-12530.817,-12574.493,-12564.694,-12524.268,-12522.914,-12537.409,-12509.776,-12492.107,-12494.877,-12470.862,-12483.527,-12485.714,-12454.154,-12467.776,-12474.85,-12470.529,-12478.516,-12482.52,-12481.928,-12472.507,-12474.729,-12470.036,-12456.207,-12453.249,-12454.869,-12484.392,-12519.909,-12507.92,-12481.058,-12506.878,-12552.637,-12557.119,-12555.598,-12546.864,-12497.214,-12459.435,-12451.835,-12464.963,-12494.565,-12490.107,-12480.774,-12496.023,-12487.808,-12472.179,-12469.237,-12464.103,-12455.311,-12456.378,-12481.411,-12513.802,-12535.6455,-12538.418,-12536.138,-12521.752,-12487.622,-12501.948,-12555.36,-12577.825,-12576.608,-12570.643,-12546.796,-12490.5,-12445.388,-12462.172,-12516.315,-12561.29,-12570.874,-12533.562,-12473.97,-12435.299,-12431.613,-12453.627,-12463.855,-12453.825,-12456.248,-12466.486,-12472.019,-12476.617,-12479.573,-12477.601,-12477.895,-12477.502,-12475.101,-12470.146,-12458.692,-12462.423,-12463.882,-12463.75,-12469.427,-12455.528,-12455.37,-12476.729,-12499.742,-12510.171,-12512.092,-12509.554,-12478.308,-12469.468,-12490.673,-12500.493,-12496.459,-12469.623,-12463.724,-12494.9375,-12518.997,-12515.537,-12501.743,-12492.4375,-12481.047,-12473.213,-12470.088,-12481.169,-12486.437,-12470.782,-12466.462,-12481.935,-12506.583,-12509.749,-12501.589,-12514.781,-12545.474,-12566.716,-12536.457,-12488.163,-12469.037,-12466.734,-12466.945,-12465.223,-12469.745,-12479.05,-12483.08,-12485.249,-12490.792,-12491.577,-12491.04,-12497.566,-12499.171,-12495.151,-12484.507,-12482.193,-12511.239,-12543.744,-12546.114,-12527.0205,-12516.549,-12510.817,-12505.692,-12505.099,-12487.765,-12486.554,-12508.363,-12514.088,-12513.059,-12499.167,-12486.819,-12494.646,-12494.842,-12480.641,-12459.574,-12463.755,-12499.55,-12510.627,-12498.476,-12509.529,-12521.313,-12495.256,-12464.237,-12472.328,-12507.417,-12523.645,-12509.799,-12495.922,-12496.382,-12498.781,-12493.606,-12500.681,-12516.797,-12518.7,-12503.167,-12482.622,-12484.471,-12489.344,-12494.152,-12501.628,-12482.781,-12474.499,-12473.764,-12464.9375,-12482.904,-12511.818,-12517.9375,-12509.003,-12527.604,-12551.794,-12544.709,-12520.255,-12487.962,-12478.246,-12480.75,-12474.795,-12478.044,-12480.525,-12478.209,-12481.634,-12487.376,-12484.858,-12479.582,-12486.31,-12490.241,-12479.754,-12486.486,-12496.908,-12484.171,-12510.038,-12568.929,-12578.568,-12526.944,-12481.763,-12502.666,-12517.221,-12499.715,-12503.625,-12485.644,-12476.645,-12503.719,-12499.729,-12489.276,-12493.578,-12497.283,-12491.187,-12484.658,-12504.244,-12509.381,-12506.826,-12530.806,-12538.013,-12510.797,-12497.122,-12506.788,-12491.054,-12486.983,-12510.256,-12516.207,-12525.566,-12530.564,-12534.855,-12535.583,-12513.867,-12518.385,-12537.963,-12528.014,-12498.989,-12491.431,-12534.992,-12568.39,-12531.855,-12490.84,-12492.641,-12497.688,-12507.985,-12539.3,-12575.302,-12574.134,-12515.033,-12475.208,-12490.533,-12510.122,-12512.722,-12520.709,-12536.3955,-12523.112,-12509.075,-12516.283,-12507.359,-12490.011,-12486.4795,-12499.83,-12504.472,-12503.2,-12526.665,-12592.964,-12683.781,-12674.997,-12575.399,-12533.438,-12552.712,-12555.742,-12522.189,-12498.485,-12497.77,-12516.383,-12527.257,-12507.737,-12507.902,-12495.379,-12478.059,-12481.51,-12478.439,-12507.17,-12519.718,-12499.526,-12478.376,-12454.461,-12490.037,-12534.077,-12515.415,-12502.715,-12511.94,-12506.934,-12500.305,-12510.554,-12529.028,-12526.529,-12519.003,-12531.846,-12530.564,-12517.541,-12510.091,-12515.899,-12546.085,-12562.418,-12546.245,-12503.941,-12466.7,-12469.395,-12485.493,-12501.638,-12503.544,-12496.03,-12532.593,-12582.715,-12579.204,-12527.391,-12477.158,-12471.846,-12492.375,-12501.589,-12486.008,-12452.829,-12439.367,-12459.921,-12501.927,-12527.851,-12532.978,-12549.646,-12549.284,-12530.515,-12511.354,-12505.936,-12526.447,-12524.473,-12518.772,-12526.96,-12512.686,-12501.299,-12507.58,-12527.351,-12539.668,-12549.444,-12592.148,-12590.675,-12508.326,-12444.589,-12453.621,-12489.75,-12486.804,-12473.653,-12502.524,-12543.319,-12556.94,-12532.205,-12503.773,-12512.231,-12531.989,-12529.512,-12509.062,-12485.156,-12476.542,-12481.653,-12488.685,-12495.623,-12481.345,-12465.732,-12482.862,-12521.171,-12547.424,-12520.072,-12490.008,-12507.345,-12524.3125,-12512.949,-12492.41,-12497.969,-12511.099,-12510.542,-12509.476,-12506.834,-12512.015,-12510.449,-12510.039,-12533.32,-12545.189,-12517.93,-12477.885,-12478.055,-12515.283,-12529.188,-12526.613,-12566.492,-12611.665,-12619.511,-12597.326,-12535.164,-12488.684,-12481.233,-12490.181,-12512.764,-12526.154,-12543.161,-12538.226,-12513.969,-12520.79,-12515.584,-12498.042,-12511.224,-12514.6,-12487.825,-12481.202,-12478.891,-12464.44,-12488.151,-12511.169,-12507.916,-12508.924,-12497.703,-12488.895,-12490.772,-12495.615,-12509.62,-12510.123,-12507.688,-12513.24,-12512.405,-12519.029,-12516.13,-12499.473,-12498.229,-12491.172,-12466.582,-12452.984,-12481.736,-12535.695,-12554.694,-12551.301,-12557.198,-12547.459,-12511.076,-12474.868,-12475.73,-12501.508,-12512.939,-12518.23,-12530.005,-12547.671,-12554.888,-12517.253,-12485.73,-12508.079,-12524.838,-12526.631,-12529.277,-12509.077,-12493.294,-12498.728,-12505.203,-12513.543,-12516.6455,-12513.422,-12519.87,-12527.853,-12516.424,-12498.982,-12509.139,-12532.589,-12536.925,-12529.301,-12532.567,-12546.291,-12546.384,-12530.812,-12529.388,-12551.477,-12555.384,-12527.939,-12499.352,-12486.709,-12493.656,-12491.459,-12486.831,-12499.303,-12513.987,-12530.367,-12526.207,-12506.879,-12495.73,-12496.675,-12505.089,-12498.89,-12495.021,-12501.684,-12504.303,-12504.396,-12508.895,-12513.464,-12506.6045,-12501.76,-12500.708,-12499.752,-12502.949,-12516.105,-12527.556,-12525.377,-12540.292,-12562.8125,-12562.157,-12542.1875,-12509.479,-12481.598,-12505.158,-12541.988,-12512.019,-12500.091,-12538.403,-12568.505,-12586.07,-12555.723,-12499.852,-12462.234,-12475.542,-12511.545,-12506.617,-12532.739,-12565.669,-12530.914,-12489.606,-12475.65,-12479.993,-12484.844,-12495.026,-12522.559,-12535.829,-12521.661,-12494.069,-12477.663,-12496.701,-12522.186,-12533.967,-12540.848,-12531.5,-12541.874,-12552.803,-12522.271,-12498.392,-12481.047,-12500.537,-12553.483,-12552.8955,-12533.774,-12533.352,-12536.98,-12545.437,-12542.971,-12533.738,-12528.707,-12524.507,-12526.464,-12548.435,-12575.7705,-12567.426,-12535.02,-12519.808,-12529.774,-12566.519,-12595.931,-12578.76,-12530.853,-12506.372,-12562.268,-12624.09,-12601.807,-12554.82,-12533.151,-12524.398,-12507.934,-12500.6045,-12514.919,-12523.486,-12536.118,-12538.06,-12521.604,-12498.814,-12478.554,-12510.008,-12534.722,-12522.187,-12526.278,-12511.468,-12500.651,-12504.75,-12498.235,-12511.692,-12517.219,-12510.037,-12517.955,-12545.473,-12568.2705,-12558.438,-12552.693,-12549.473,-12540.843,-12549.962,-12573.132,-12603.572,-12605.75,-12566.333,-12496.835,-12439.814,-12461.299,-12514.52,-12534.725,-12534.183,-12545.295,-12579.703,-12590.205,-12574.547,-12585.693,-12586.0205,-12548.464,-12541.324,-12551.7295,-12533.184,-12516.614,-12511.771,-12518.566,-12535.798,-12553.731,-12568.018,-12558.271,-12553.388,-12588.463,-12617.794,-12601.848,-12579.729,-12565.272,-12524.686,-12514.645,-12567.028,-12596.987,-12583.724,-12562.73,-12551.518,-12565.449,-12577.259,-12555.101,-12533.429,-12544.335,-12556.916,-12563.098,-12579.967,-12574.377,-12524.952,-12499.043,-12540.298,-12557.292,-12542.315,-12579.127,-12605.28,-12575.142,-12538.746,-12522.645,-12522.241,-12510.33,-12513.915,-12546.844,-12547.402,-12526.757,-12529.244,-12550.07,-12589.513,-12597.86,-12558.761,-12538.845,-12544.588,-12547.03,-12522.663,-12511.712,-12529.359,-12524.679,-12532.355,-12541.355,-12540.069,-12550.625,-12543.365,-12541.181,-12542.943,-12558.36,-12584.797,-12567.799,-12564.264,-12594.656,-12588.495,-12541.109,-12503.3125,-12506.371,-12518.913,-12534.06,-12552.857,-12537.672,-12556.807,-12635.756,-12659.632,-12623.193,-12578.3955,-12551.838,-12565.26,-12560.059,-12518.414,-12508.096,-12522.4375,-12519.914,-12527.944,-12547.227,-12552.189,-12565.991,-12594.988,-12602.013,-12571.572,-12545.252,-12553.262,-12602.845,-12642.193,-12576.704,-12514.242,-12581.027,-12643.793,-12607.659,-12544.495,-12513.8955,-12518.014,-12530.574,-12543.268,-12551.044,-12545.238,-12550.144,-12555.773,-12540.685,-12538.209,-12540.305,-12528.471,-12528.6875,-12531.283,-12540.859,-12573.145,-12592.741,-12593.551,-12584.3955,-12562.324,-12548.433,-12548.993,-12561.183,-12563.697,-12538.241,-12529.1455,-12556.63,-12583.523,-12581.48,-12553.35,-12532.819,-12542.27,-12558.387,-12562.46,-12574.471,-12592.871,-12589.712,-12572.827,-12550.671,-12532.694,-12553.2295,-12566.788,-12544.661,-12539.768,-12538.294,-12545.239,-12564.658,-12563.034,-12562.135,-12554.82,-12546.0625,-12547.706,-12542.429,-12548.742,-12563.886,-12576.361,-12584.661,-12577.296,-12553.527,-12534.331,-12535.573,-12544.082,-12558.576,-12575.413,-12571.768,-12551.924,-12542.602,-12536.766,-12557.066,-12618.246,-12616.695,-12561.056,-12548.335,-12550.452,-12536.701,-12522.994,-12535.546,-12553.981,-12550.626,-12552.281,-12557.909,-12562.608,-12558.9,-12554.718,-12553.2295,-12536.541,-12557.1045,-12606.982,-12626.894,-12622.923,-12587.983,-12551.447,-12554.779,-12549.956,-12549.43,-12614.921,-12662.877,-12619.11,-12556.251,-12535.841,-12555.533,-12579.382,-12583.872,-12601.975,-12606.136,-12565.876,-12548.628,-12550.699,-12562.819,-12594.292
-12605.817,-12612.998,-12595.079,-12562.005,-12551.494,-12542.082,-12564.716,-12577.87,-12554.05,-12544.562,-12535.81,-12543.006,-12560.257,-12559.21,-12558.112,-12554.658,-12535.994,-12510.977,-12522.709,-12558.553,-12569.048,-12575.208,-12571.317,-12534.188,-12525.0625,-12562.01,-12578.588,-12585.837,-12592.125,-12575.776,-12584.494,-12596.282,-12586.248,-12584.117,-12577.965,-12580.069,-12578.605,-12562.853,-12552.221,-12532.477,-12531.0,-12553.285,-12544.534,-12524.019,-12540.055,-12560.497,-12554.092,-12539.171,-12535.596,-12550.586,-12551.042,-12530.323,-12531.282,-12554.058,-12591.6875,-12643.662,-12667.77,-12644.741,-12613.987,-12591.596,-12564.776,-12543.165,-12538.305,-12542.827,-12532.891,-12513.97,-12515.5625,-12531.798,-12544.667,-12543.505,-12544.807,-12563.001,-12567.331,-12556.063,-12554.357,-12561.864,-12562.027,-12539.449,-12527.38,-12561.332,-12584.986,-12576.134,-12591.483,-12609.961,-12599.444,-12577.33,-12556.923,-12556.473,-12571.431,-12587.631,-12599.752,-12616.423,-12612.398,-12571.565,-12552.889,-12555.747,-12555.205,-12544.939,-12527.769,-12533.803,-12548.161,-12556.022,-12548.585,-12535.076,-12539.319,-12557.568,-12580.2705,-12594.724,-12613.625,-12609.917,-12593.035,-12595.8545,-12577.225,-12581.795,-12586.523,-12543.854,-12543.814,-12555.215,-12545.518,-12550.092,-12542.339,-12535.531,-12548.886,-12579.418,-12582.337,-12555.38,-12578.057,-12619.572,-12633.829,-12616.719,-12565.432,-12548.09,-12575.828,-12591.8955,-12603.26,-12619.847,-12611.1455,-12582.529,-12565.597,-12571.511,-12588.357,-12593.577,-12585.699,-12565.856,-12548.19,-12559.692,-12563.517,-12540.129,-12541.286,-12551.534,-12541.069,-12542.136,-12549.202,-12541.877,-12544.674,-12576.674,-12599.372,-12607.318,-12620.414,-12594.915,-12557.278,-12557.476,-12564.701,-12567.648,-12578.998,-12583.015,-12566.893,-12570.324,-12579.644,-12563.3545,-12571.948,-12592.161,-12574.752,-12554.206,-12577.174,-12610.113,-12607.155,-12580.503,-12558.83,-12554.888,-12550.2295,-12555.8125,-12565.447,-12562.201,-12573.0205,-12566.758,-12541.6045,-12556.49,-12631.625,-12686.088,-12652.148,-12617.258,-12603.168,-12596.414,-12602.314,-12570.166,-12549.711,-12559.884,-12569.202,-12592.438,-12607.2705,-12611.044,-12607.352,-12588.114,-12552.576,-12527.641,-12540.541,-12556.711,-12573.792,-12592.307,-12575.47,-12550.196,-12578.986,-12618.729,-12596.618,-12582.121,-12602.204,-12595.933,-12593.258,-12606.804,-12588.137,-12562.926,-12572.134,-12582.369,-12594.232,-12613.438,-12595.93,-12559.346,-12556.479,-12577.306,-12576.532,-12571.179,-12578.396,-12579.55,-12577.008,-12565.938,-12581.294,-12623.83,-12630.874,-12594.997,-12540.037,-12524.564,-12562.935,-12591.769,-12609.423,-12616.173,-12596.978,-12584.842,-12583.49,-12576.181,-12557.669,-12548.861,-12566.029,-12578.693,-12580.174,-12579.61,-12588.273,-12592.888,-12571.992,-12560.447,-12557.102,-12548.446,-12554.609,-12580.696,-12617.575,-12623.51,-12613.737,-12662.513,-12710.363,-12678.008,-12633.907,-12592.11,-12551.29,-12578.382,-12607.843,-12590.287,-12573.184,-12566.734,-12582.656,-12595.635,-12597.061,-12620.903,-12653.911,-12664.769,-12635.129,-12602.547,-12598.539,-12588.873,-12566.718,-12550.231,-12550.246,-12562.4,-12560.785,-12555.349,-12556.672,-12561.947,-12598.676,-12642.91,-12645.743,-12609.084,-12574.654,-12587.712,-12596.679,-12578.031,-12590.911,-12604.145,-12600.442,-12594.997,-12576.804,-12580.203,-12604.321,-12632.491,-12676.927,-12716.954,-12693.336,-12605.415,-12563.336,-12575.782,-12557.544,-12544.683,-12582.115,-12631.405,-12658.962,-12651.457,-12631.682,-12605.925,-12560.577,-12549.284,-12567.002,-12578.955,-12598.521,-12592.563,-12575.545,-12568.79,-12556.305,-12562.871,-12573.885,-12564.005,-12551.474,-12578.761,-12630.027,-12626.59,-12607.564,-12618.402,-12624.514,-12646.43,-12660.855,-12632.3545,-12599.956,-12585.359,-12590.3,-12588.534,-12580.237,-12623.784,-12692.879,-12685.635,-12624.373,-12591.102,-12574.843,-12579.558,-12577.777,-12549.952,-12571.519,-12591.407,-12541.421,-12522.948,-12578.909,-12598.246,-12558.433,-12528.427,-12508.366,-12501.973,-12511.286,-12541.352,-12583.8,-12595.708,-12589.273,-12569.803,-12548.436,-12543.125,-12537.699,-12531.758,-12531.273,-12542.219,-12547.315,-12555.216,-12579.621,-12564.969,-12517.915,-12484.543,-12471.096,-12494.382,-12524.757,-12544.468,-12578.05,-12593.954,-12577.244,-12548.653,-12536.441,-12557.586,-12576.405,-12601.766,-12612.953,-12553.225,-12502.388,-12485.8,-12469.893,-12476.699,-12487.555,-12514.546,-12529.444,-12524.27,-12534.606,-12518.307,-12518.94,-12537.627,-12525.616,-12510.371,-12494.413,-12486.972,-12481.738,-12496.412,-12521.32,-12523.295,-12531.824,-12531.686,-12533.543,-12539.351,-12536.268,-12545.777,-12545.805,-12552.271,-12552.169,-12521.377,-12506.41,-12506.067,-12499.039,-12489.561,-12480.352,-12481.797,-12509.746,-12531.593,-12530.113,-12533.662,-12518.773,-12504.589,-12512.73,-12501.481,-12491.983,-12521.482,-12588.308,-12648.412,-12641.528,-12569.685,-12507.509,-12505.561,-12514.599,-12505.962,-12497.244,-12497.087,-12503.2295,-12506.236,-12531.229,-12554.999,-12544.01,-12523.478,-12513.922,-12526.541,-12529.538,-12521.412,-12522.462,-12515.4,-12506.078,-12497.949,-12503.342,-12515.633,-12520.779,-12526.874,-12523.506,-12523.266,-12526.737,-12526.701,-12532.173,-12542.669,-12553.2705,-12550.304,-12543.046,-12528.319,-12514.932,-12519.665,-12512.683,-12510.682,-12515.919,-12509.339,-12519.166,-12532.194,-12535.817,-12533.95,-12528.323,-12536.853,-12538.668,-12528.222,-12536.875,-12556.129,-12561.377,-12552.047,-12541.838,-12545.232,-12549.714,-12544.33,-12546.884,-12550.029,-12542.899,-12534.437,-12532.202,-12537.481,-12525.094,-12500.417,-12512.494,-12571.771,-12627.845,-12631.814,-12598.336,-12561.151,-12543.22,-12551.266,-12554.565,-12543.257,-12544.967,-12565.88,-12582.309,-12582.643,-12568.648,-12560.42,-12570.616,-12554.684,-12524.72,-12523.633,-12524.532,-12520.136,-12515.197,-12529.926,-12552.539,-12535.075,-12533.881,-12571.504,-12607.34,-12607.584,-12528.389,-12458.811,-12484.847,-12538.228,-12560.718,-12566.899,-12575.85,-12573.768,-12573.347,-12601.016,-12626.593,-12598.471,-12542.038,-12518.593,-12513.602,-12525.384,-12530.138,-12501.581,-12505.798,-12521.784,-12518.717,-12536.354,-12550.814,-12542.561,-12529.444,-12511.073,-12496.672,-12511.749,-12513.82,-12489.402,-12512.21,-12547.453,-12545.753,-12531.343,-12508.925,-12528.543,-12584.787,-12602.009,-12591.969,-12568.645,-12528.505,-12515.707,-12551.593,-12598.37,-12626.065,-12622.631,-12593.902,-12600.656,-12619.656,-12600.299,-12587.855,-12552.081,-12509.746,-12526.261,-12532.233,-12531.391,-12531.415,-12508.158,-12514.942,-12510.112,-12502.461,-12521.499,-12504.63,-12479.629,-12489.95,-12544.646,-12592.79,-12623.484,-12666.182,-12638.138,-12579.369,-12577.332,-12577.905,-12544.659,-12511.968,-12525.696,-12573.338,-12606.374,-12592.405,-12565.165,-12560.077,-12523.662,-12487.347,-12532.891,-12577.617,-12579.827,-12611.441,-12615.161,-12564.274,-12529.871,-12506.863,-12507.356,-12552.463,-12597.539,-12594.518,-12595.477,-12633.576,-12593.856,-12502.486,-12483.551,-12510.143,-12535.684,-12557.822,-12581.231,-12592.244,-12595.437,-12610.942,-12600.367,-12574.474,-12564.371,-12530.403,-12511.689,-12538.952,-12541.04,-12525.264,-12529.966,-12557.736,-12580.88,-12563.17,-12551.726,-12562.225,-12608.935,-12712.261,-12751.868,-12716.826,-12732.871,-12706.716,-12552.701,-12525.212,-12685.851,-12723.231,-12616.569,-12551.744,-12525.241,-12527.929,-12539.1875,-12521.362,-12551.093,-12602.885,-12655.073,-12754.924,-12749.968,-12637.762,-12572.883,-12558.988,-12542.0205,-12463.874,-12441.478,-12513.28,-12577.12,-12659.099,-12692.532,-12662.469,-12627.414,-12570.081,-12533.922,-12543.063,-12567.169,-12558.757,-12537.47,-12523.069,-12490.675,-12486.687,-12505.393,-12519.738,-12528.618,-12558.894,-12613.475,-12596.246,-12550.142,-12507.311,-12449.671,-12485.382,-12559.344,-12590.944,-12624.983,-12637.252,-12631.896,-12637.897,-12637.866,-12597.124,-12527.697,-12498.476,-12480.781,-12448.472,-12440.544,-12440.986,-12457.832,-12482.621,-12492.01,-12509.041,-12519.841,-12519.684,-12519.534,-12509.36,-12494.994,-12507.894,-12546.434,-12570.285,-12580.628,-12571.732,-12560.963,-12576.872,-12572.681,-12539.442,-12482.24,-12432.995,-12466.607,-12531.339,-12548.999,-12525.11,-12502.914,-12513.902,-12518.944,-12521.11,-12530.331,-12519.105,-12531.051,-12544.255,-12529.805,-12529.023,-12526.565,-12518.634,-12496.16,-12473.824,-12483.023,-12480.072,-12470.988,-12481.498,-12500.726,-12530.819,-12546.007,-12530.821,-12518.232,-12522.58,-12539.492,-12546.574,-12532.353,-12545.005,-12547.059,-12513.554,-12512.263,-12507.079,-12494.697,-12498.217,-12486.7,-12488.437,-12505.418,-12526.488,-12526.836,-12499.938,-12529.786,-12585.022,-12576.627,-12551.862,-12543.142,-12530.358,-12538.324,-12565.483,-12577.804,-12558.333,-12505.059,-12456.636,-12462.207,-12498.286,-12504.618,-12503.33,-12516.455,-12519.56,-12524.133,-12538.463,-12551.509,-12534.879,-12517.037,-12524.333,-12511.466,-12509.726,-12521.786,-12514.008,-12505.848,-12498.751,-12502.915,-12510.747,-12513.596,-12504.206,-12488.609,-12510.384,-12559.971,-12589.668,-12570.177,-12566.0205,-12620.011,-12657.423,-12648.094,-12591.438,-12529.631,-12521.722,-12518.081,-12488.48,-12485.553,-12508.322,-12514.942,-12522.242,-12532.937,-12535.416,-12534.959,-12523.341,-12517.778,-12513.545,-12502.313,-12495.3,-12503.188,-12523.211,-12521.277,-12532.646,-12550.354,-12516.383,-12494.071,-12516.6875,-12537.269,-12542.604,-12549.498,-12553.032,-12544.909,-12548.738,-12561.423,-12568.179,-12550.171,-12522.501,-12552.203,-12603.595,-12607.573,-12585.081,-12562.187,-12552.452,-12553.299,-12544.836,-12544.092,-12557.506,-12538.641,-12501.153,-12501.168,-12510.037,-12539.175,-12611.641,-12632.699,-12591.666,-12544.584,-12516.515,-12525.404,-12518.609,-12504.953,-12526.025,-12555.266,-12591.043,-12592.615,-12532.32,-12501.152,-12527.03,-12534.299,-12547.221,-12592.735,-12610.332,-12607.111,-12589.562,-12576.625,-12595.45,-12591.945,-12570.645,-12534.617,-12479.576,-12471.484,-12507.366,-12537.901,-12562.303,-12610.238,-12630.211,-12572.315,-12521.228,-12516.488,-12534.661,-12548.78,-12549.574,-12556.583,-12550.335,-12555.463,-12573.537,-12583.898,-12576.301,-12519.749,-12514.9,-12559.737,-12541.595,-12508.986,-12511.256,-12548.302,-12581.762,-12601.316,-12622.904,-12578.474,-12515.511,-12509.608,-12515.426,-12522.337,-12530.748,-12568.1,-12624.463,-12612.778,-12558.508,-12513.178,-12502.938,-12531.444,-12555.855,-12586.823,-12579.435,-12561.975,-12618.502,-12619.89,-12564.079,-12590.175,-12614.282,-12540.519,-12481.704,-12505.248,-12532.474,-12552.28,-12560.409,-12547.245,-12550.372,-12565.8545,-12613.236,-12645.794,-12589.348,-12523.411,-12509.466,-12515.025,-12519.939,-12499.822,-12455.181,-12460.44,-12521.647,-12564.378,-12582.159,-12581.544,-12553.606,-12542.687,-12556.678,-12547.496,-12521.775,-12523.763,-12575.579,-12606.506,-12551.995,-12506.771,-12535.839,-12593.796,-12654.771,-12697.034,-12692.3955,-12676.542,-12679.181,-12666.716,-12626.592,-12559.528,-12504.929,-12505.28,-12526.759,-12524.34,-12503.506,-12506.703,-12504.196,-12476.443,-12464.562,-12476.522,-12509.945,-12517.795,-12495.637,-12508.1455,-12576.614,-12651.664,-12635.961,-12568.014,-12579.935,-12662.38,-12704.056,-12663.421,-12615.202,-12588.559,-12556.98,-12533.502,-12502.289,-12480.045,-12487.25,-12497.516,-12507.457,-12494.826,-12489.48,-12496.165,-12482.904,-12485.629,-12483.462,-12490.04,-12513.222,-12513.552,-12535.384,-12574.308,-12586.576,-12573.451,-12578.618,-12600.547,-12574.288,-12539.1455,-12532.131,-12523.67,-12530.166,-12556.265,-12555.542,-12536.522,-12585.541,-12654.007,-12656.743,-12668.169,-12684.995,-12647.714,-12580.591,-12523.666,-12518.81,-12526.0205,-12517.652,-12531.875,-12543.622,-12540.937,-12545.363,-12542.315,-12512.336,-12510.2705,-12558.397,-12556.657,-12503.621,-12491.709,-12517.047,-12515.692,-12503.767,-12517.238,-12520.167,-12529.153,-12544.882,-12547.066,-12566.052,-12594.523,-12637.12,-12654.377,-12612.298,-12566.565,-12539.271,-12545.488,-12564.442,-12559.747,-12563.188,-12583.849,-12584.432,-12547.177,-12524.383,-12544.624,-12550.073,-12536.868,-12549.804,-12568.481,-12553.989,-12539.373,-12563.137,-12585.763,-12586.575,-12575.243,-12541.731,-12522.315,-12533.701,-12537.547,-12535.788,-12552.165,-12569.9795,-12552.995,-12548.761,-12584.54,-12574.383,-12530.335,-12524.589,-12559.548,-12582.595,-12570.043,-12611.34,-12645.418,-12581.6455,-12531.717,-12504.204,-12480.2295,-12490.093,-12501.948,-12504.006,-12489.717,-12488.578,-12498.857,-12501.353,-12516.5,-12525.538,-12537.437,-12539.59,-12533.704,-12562.917,-12606.653,-12649.484,-12640.695,-12556.965,-12511.215,-12565.052,-12632.209,-12624.769,-12549.11,-12480.955,-12482.719,-12516.029,-12542.619,-12557.522,-12552.788,-12558.455,-12562.548,-12551.258,-12536.12,-12520.301,-12524.706,-12534.385,-12552.0,-12586.521,-12606.225,-12599.767,-12546.788,-12480.423,-12479.045,-12503.666,-12503.282,-12507.012,-12525.328,-12564.037,-12589.106,-12559.564,-12539.967,-12554.401,-12580.3955,-12614.252,-12588.354,-12533.521,-12529.888
-12520.795,-12524.928,-12591.871,-12628.852,-12593.467,-12561.87,-12566.404,-12551.847,-12524.124,-12542.551,-12577.336,-12578.704,-12550.328,-12544.269,-12563.707,-12546.615,-12561.623,-12635.656,-12644.925,-12591.491,-12544.118,-12531.334,-12563.282,-12595.51,-12588.213,-12546.481,-12520.069,-12532.226,-12545.386,-12535.299,-12519.96,-12522.767,-12525.024,-12526.969,-12526.215,-12509.378,-12516.001,-12545.57,-12593.271,-12626.01,-12591.964,-12582.772,-12609.685,-12580.849,-12539.505,-12539.378,-12560.7705,-12579.429,-12595.283,-12613.942,-12593.31,-12521.835,-12506.936,-12580.332,-12618.797,-12582.942,-12527.179,-12507.2295,-12511.192,-12488.559,-12516.153,-12601.495,-12655.377,-12656.68,-12601.864,-12560.613,-12547.874,-12541.253,-12551.001,-12513.124,-12500.66,-12553.365,-12572.094,-12583.264,-12591.061,-12591.083,-12599.767,-12597.852,-12585.934,-12548.051,-12513.476,-12495.149,-12510.185,-12563.211,-12577.045,-12564.01,-12546.27,-12522.437,-12520.987,-12535.577,-12556.98,-12602.217,-12679.56,-12708.96,-12649.827,-12555.418,-12482.048,-12482.208,-12522.505,-12544.887,-12537.802,-12528.92,-12538.049,-12538.344,-12547.622,-12562.762,-12553.582,-12543.123,-12560.147,-12580.387,-12544.427,-12491.733,-12488.083,-12509.515,-12526.867,-12527.843,-12518.118,-12520.07,-12540.801,-12563.985,-12582.08,-12608.988,-12637.532,-12671.333,-12717.859,-12741.483,-12699.005,-12579.709,-12492.634,-12533.201,-12582.633,-12567.033,-12564.92,-12587.865,-12613.61,-12619.775,-12562.282,-12494.12,-12482.373,-12489.316,-12497.066,-12499.2,-12491.978,-12518.914,-12549.049,-12539.417,-12528.236,-12564.421,-12608.695,-12582.847,-12546.921,-12552.7295,-12586.079,-12622.433,-12606.079,-12594.862,-12588.321,-12540.424,-12534.24,-12554.977,-12552.231,-12534.858,-12515.6875,-12523.896,-12545.134,-12575.918,-12609.513,-12628.049,-12624.191,-12580.256,-12550.297,-12541.113,-12515.163,-12522.14,-12541.88,-12526.814,-12517.706,-12531.366,-12546.751,-12551.394,-12573.989,-12638.323,-12683.223,-12654.651,-12574.41,-12531.419,-12546.69,-12536.984,-12518.624,-12507.936,-12510.063,-12554.087,-12562.13,-12531.836,-12519.383,-12538.753,-12566.119,-12551.581,-12545.976,-12556.609,-12534.885,-12511.697,-12513.916,-12518.782,-12504.663,-12508.657,-12541.701,-12561.051,-12568.315,-12586.296,-12590.606,-12581.138,-12624.786,-12669.671,-12635.061,-12602.259,-12587.073,-12573.619,-12609.125,-12625.057,-12599.827,-12569.475,-12525.595,-12514.558,-12525.322,-12540.939,-12548.778,-12519.381,-12516.806,-12526.374,-12514.254,-12506.029,-12496.525,-12507.087,-12518.795,-12529.41,-12555.69,-12551.84,-12539.8545,-12545.91,-12541.883,-12537.498,-12538.72,-12534.161,-12531.9375,-12535.943,-12539.263,-12541.249,-12540.907,-12534.113,-12528.586,-12525.993,-12520.209,-12525.437,-12534.709,-12537.158,-12555.883,-12576.417,-12572.047,-12557.147,-12552.506,-12562.38,-12572.279,-12591.648,-12623.672,-12613.974,-12556.404,-12516.001,-12514.823,-12524.979,-12532.876,-12534.738,-12520.536,-12517.385,-12535.195,-12533.579,-12532.476,-12547.754,-12548.266,-12537.208,-12519.457,-12511.866,-12523.21,-12535.817,-12544.254,-12544.009,-12539.0625,-12536.871,-12550.521,-12566.716,-12568.466,-12556.457,-12547.8,-12596.535,-12625.253,-12591.862,-12593.671,-12586.051,-12569.121,-12556.193,-12513.594,-12538.81,-12565.632,-12530.78,-12517.297,-12509.022,-12516.103,-12519.887,-12516.784,-12541.848,-12544.3125,-12534.399,-12525.53,-12518.444,-12532.804,-12551.73,-12571.472,-12569.673,-12539.542,-12522.829,-12517.092,-12493.401,-12509.033,-12563.8545,-12574.847,-12566.441,-12554.962,-12551.516,-12562.855,-12557.581,-12567.791,-12579.285,-12569.092,-12553.129,-12542.846,-12535.773,-12525.607,-12551.347,-12580.604,-12586.491,-12570.764,-12540.727,-12569.115,-12586.508,-12552.181,-12538.7705,-12547.0,-12578.185,-12565.93,-12513.247,-12512.997,-12518.798,-12502.188,-12511.166,-12525.391,-12519.624,-12530.628,-12540.349,-12535.49,-12546.733,-12544.562,-12526.251,-12519.132,-12523.753,-12526.141,-12527.963,-12533.45,-12526.9375,-12528.888,-12545.3955,-12557.751,-12555.573,-12543.667,-12531.9,-12511.998,-12522.565,-12570.428,-12593.208,-12581.121,-12552.893,-12512.356,-12505.785,-12555.808,-12573.745,-12554.269,-12581.332,-12602.761,-12565.331,-12539.76,-12555.138,-12582.493,-12594.3,-12568.997,-12553.205,-12551.032,-12539.339,-12555.907,-12567.816,-12547.06,-12528.44,-12561.628,-12610.631,-12588.39,-12545.173,-12522.64,-12542.316,-12578.573,-12558.278,-12543.788,-12545.981,-12539.985,-12536.57,-12539.216,-12583.636,-12602.457,-12566.354,-12543.438,-12514.679,-12488.269,-12507.831,-12529.498,-12529.999,-12549.596,-12566.887,-12557.927,-12563.88,-12586.464,-12614.711,-12640.893,-12627.058,-12583.754,-12584.162,-12636.414,-12634.923,-12585.368,-12543.524,-12480.202,-12475.257,-12525.525,-12536.772,-12534.254,-12533.445,-12572.575,-12612.13,-12561.512,-12508.364,-12505.75,-12519.996,-12570.879,-12607.782,-12581.052,-12542.425,-12523.801,-12552.772,-12578.223,-12574.986,-12634.087,-12669.837,-12628.089,-12589.6,-12538.347,-12487.89,-12475.18,-12489.703,-12504.268,-12517.518,-12535.332,-12529.665,-12515.622,-12505.074,-12501.26,-12517.141,-12529.33,-12528.414,-12518.327,-12502.469,-12500.68,-12530.476,-12556.787,-12552.934,-12577.571,-12639.637,-12661.493,-12610.679,-12550.232,-12546.334,-12570.012,-12589.652,-12613.414,-12638.718,-12642.468,-12594.949,-12571.946,-12622.951,-12629.97,-12549.968,-12494.134,-12506.039,-12506.646,-12504.0,-12521.684,-12514.992,-12534.497,-12600.823,-12659.604,-12639.497,-12544.509,-12541.113,-12615.023,-12585.685,-12516.691,-12519.183,-12526.566,-12530.031,-12546.358,-12566.489,-12611.94,-12640.3,-12645.318,-12651.475,-12599.443,-12508.898,-12517.387,-12562.889,-12548.964,-12553.7,-12529.648,-12499.383,-12515.13,-12502.005,-12493.603,-12496.753,-12509.187,-12533.991,-12543.815,-12537.982,-12510.831,-12500.725,-12504.18,-12506.404,-12511.291,-12517.25,-12533.668,-12544.697,-12569.89,-12569.237,-12519.254,-12513.264,-12536.653,-12536.139,-12550.579,-12582.28,-12575.293,-12521.902,-12494.46,-12547.952,-12600.989,-12571.078,-12526.394,-12515.503,-12528.104,-12552.37,-12573.614,-12599.717,-12601.918,-12586.278,-12585.282,-12575.158,-12557.137,-12542.9,-12526.447,-12521.774,-12522.324,-12506.182,-12510.158,-12541.371,-12557.814,-12557.02,-12548.397,-12534.504,-12507.59,-12499.535,-12509.073,-12506.418,-12529.305,-12540.193,-12521.966,-12522.089,-12528.381,-12536.8545,-12534.62,-12527.505,-12526.503,-12520.359,-12529.032,-12536.189,-12526.283,-12526.073,-12546.251,-12565.977,-12562.374,-12557.439,-12579.908,-12599.901,-12584.41,-12559.353,-12524.938,-12506.486,-12535.604,-12537.441,-12523.765,-12527.047,-12519.865,-12516.25,-12511.069,-12536.1045,-12565.8955,-12567.93,-12575.013,-12553.913,-12552.926,-12578.838,-12560.261,-12543.161,-12562.109,-12593.437,-12575.115,-12548.736,-12586.367,-12582.582,-12553.771,-12553.071,-12536.445,-12551.736,-12558.527,-12550.297,-12571.754,-12578.946,-12596.913,-12592.264,-12563.63,-12553.94,-12528.94,-12511.887,-12499.516,-12503.827,-12527.137,-12520.258,-12511.499,-12524.803,-12551.956,-12569.146,-12567.5205,-12554.917,-12539.896,-12552.028,-12565.33,-12552.434,-12531.778,-12523.316,-12534.496,-12540.768,-12534.393,-12523.925,-12522.568,-12536.146,-12545.923,-12559.938,-12574.156,-12577.356,-12594.257,-12619.868,-12595.871,-12522.477,-12505.16,-12538.494,-12539.963,-12541.077,-12544.072,-12527.232,-12521.487,-12521.192,-12521.65,-12544.051,-12568.801,-12571.089,-12563.927,-12542.663,-12522.313,-12548.864,-12610.116,-12633.07,-12575.917,-12530.312,-12538.26,-12525.792,-12538.272,-12584.579,-12584.254,-12574.149,-12555.333,-12507.32,-12508.292,-12548.006,-12579.816,-12597.103,-12564.396,-12516.024,-12499.197,-12525.507,-12563.909,-12561.15,-12554.719,-12545.136,-12534.588,-12545.249,-12548.057,-12560.858,-12562.957,-12552.773,-12570.558,-12606.394,-12614.575,-12561.355,-12537.008,-12562.454,-12579.11,-12603.04,-12605.687,-12586.71,-12577.249,-12572.983,-12580.579,-12573.2295,-12533.84,-12525.902,-12575.357,-12611.17,-12599.599,-12549.676,-12510.111,-12529.824,-12555.003,-12553.321,-12536.263,-12525.789,-12533.721,-12534.73,-12545.266,-12548.913,-12540.384,-12557.044,-12564.348,-12560.32,-12568.951,-12566.602,-12569.58,-12618.357,-12665.668,-12632.545,-12564.017,-12552.402,-12569.251,-12549.793,-12528.874,-12530.365,-12532.99,-12558.094,-12587.311,-12593.181,-12594.697,-12576.234,-12546.895,-12564.911,-12617.692,-12622.753,-12575.484,-12529.656,-12507.725,-12522.426,-12526.52,-12520.851,-12546.549,-12548.412,-12549.778,-12566.992,-12564.339,-12585.118,-12610.102,-12632.093,-12641.765,-12569.745,-12499.46,-12531.239,-12572.849,-12553.494,-12585.988,-12647.228,-12591.1,-12517.46,-12513.38,-12523.417,-12531.715,-12524.651,-12523.756,-12537.896,-12535.575,-12548.974,-12619.569,-12653.865,-12614.343,-12604.539,-12591.459,-12528.171,-12462.217,-12448.635,-12491.432,-12520.575,-12564.087,-12614.569,-12604.82,-12577.128,-12565.444,-12581.738,-12607.795,-12595.907,-12569.394,-12564.727,-12591.128,-12661.218,-12677.536,-12608.675,-12594.416,-12585.277,-12559.706,-12576.69,-12563.112,-12580.297,-12603.985,-12568.972,-12555.556,-12540.851,-12530.13,-12522.464,-12517.985,-12554.227,-12551.686,-12524.752,-12544.409,-12561.436,-12539.466,-12516.9375,-12531.765,-12574.281,-12633.176,-12693.587,-12712.954,-12699.281,-12682.54,-12623.816,-12557.656,-12550.966,-12572.945,-12613.602,-12597.815,-12530.757,-12543.257,-12539.376,-12484.984,-12507.003,-12569.994,-12595.666,-12586.094,-12584.264,-12591.461,-12592.244,-12569.93,-12512.013,-12490.317,-12507.126,-12516.521,-12538.264,-12564.915,-12577.897,-12575.462,-12566.145,-12559.912,-12551.997,-12545.386,-12553.08,-12567.256,-12555.584,-12531.587,-12545.128,-12575.981,-12585.591,-12581.876,-12584.711,-12623.562,-12662.922,-12643.614,-12597.362,-12584.234,-12583.802,-12560.227,-12563.733,-12560.881,-12547.768,-12584.857,-12577.482,-12529.005,-12483.899,-12453.394,-12482.491,-12488.145,-12466.588,-12471.006,-12497.577,-12537.257,-12580.047,-12656.856,-12695.055,-12687.685,-12696.555,-12642.378,-12555.158,-12538.454,-12562.849,-12546.369,-12507.133,-12498.018,-12490.198,-12494.149,-12501.3,-12495.584,-12501.529,-12491.7,-12491.931,-12513.102,-12534.778,-12567.244,-12577.276,-12574.8545,-12565.28,-12528.23,-12500.194,-12516.245,-12567.398,-12598.386,-12584.452,-12561.192,-12562.377,-12564.909,-12566.923,-12588.447,-12570.749,-12543.069,-12543.87,-12527.105,-12505.493,-12471.269,-12464.811,-12508.378,-12517.59,-12509.509,-12518.289,-12524.46,-12523.647,-12511.7,-12512.302,-12527.718,-12528.465,-12516.517,-12511.24,-12522.201,-12529.661,-12519.292,-12518.713,-12524.813,-12514.309,-12510.892,-12521.53,-12532.2295,-12539.541,-12536.463,-12533.158,-12531.443,-12528.179,-12526.295,-12528.282,-12532.469,-12519.31,-12514.779,-12541.942,-12568.003,-12570.756,-12551.274,-12537.134,-12544.328,-12560.457,-12563.825,-12555.088,-12566.321,-12588.002,-12586.568,-12566.239,-12592.158,-12656.583,-12632.443,-12547.05,-12529.661,-12567.561,-12580.907,-12555.889,-12530.832,-12518.316,-12538.47,-12581.007,-12580.866,-12546.052,-12518.2,-12500.549,-12492.753,-12509.8955,-12532.385,-12529.308,-12527.262,-12526.785,-12530.501,-12550.831,-12555.874,-12556.191,-12561.479,-12572.331,-12583.264,-12577.655,-12600.839,-12619.485,-12590.379,-12573.608,-12565.414,-12550.306,-12530.745,-12523.799,-12555.275,-12556.445,-12542.156,-12563.855,-12561.254,-12544.516,-12540.445,-12548.308,-12558.903,-12540.52,-12533.337,-12534.818,-12525.069,-12536.001,-12554.179,-12554.395,-12530.873,-12537.855,-12596.232,-12618.235,-12586.869,-12557.018,-12525.462,-12517.859,-12555.47,-12575.221,-12570.192,-12543.576,-12523.7,-12525.462,-12501.85,-12521.556,-12560.829,-12572.692,-12605.755,-12597.184,-12573.417,-12581.964,-12561.559,-12524.587,-12502.508,-12503.591,-12524.808,-12534.159,-12529.366,-12542.417,-12575.495,-12585.872,-12573.459,-12582.68,-12590.078,-12589.395,-12611.901,-12595.886,-12531.235,-12505.836,-12526.969,-12553.894,-12575.753,-12575.566,-12553.572,-12541.161,-12549.582,-12569.309,-12568.587,-12547.1045,-12542.838,-12539.494,-12531.815,-12539.356,-12561.594,-12591.446,-12590.732,-12564.209,-12556.251,-12557.897,-12546.104,-12533.901,-12534.601,-12538.369,-12548.045,-12560.213,-12558.304,-12555.435,-12581.579,-12631.589,-12674.175,-12681.699,-12623.837,-12552.183,-12552.245,-12583.249,-12559.255,-12521.0,-12531.715,-12522.473,-12502.694,-12514.453,-12509.768,-12528.7295,-12561.122,-12560.541,-12548.173,-12527.069,-12527.644,-12539.917,-12538.552,-12530.998,-12510.501,-12502.159,-12510.599,-12510.996,-12527.079,-12566.951,-12592.847,-12606.44,-12595.423,-12561.016,-12560.707,-12576.169,-12590.027,-12628.286,-12668.71,-12646.323,-12584.774,-12588.157,-12584.239,-12542.721,-12564.604,-12574.842,-12529.008,-12505.247,-12520.766,-12540.5,-12533.499,-12512.784,-12499.839,-12499.394,-12508.714,-12551.18,-12626.22,-12631.193,-12564.216,-12565.252,-12600.243,-12572.394,-12552.888,-12559.167,-12550.48,-12548.458,-12569.284,-12583.65,-12546.756,-12529.095,-12562.132,-12581.96
