SampleData
0.0,-1213.9408,-5857.3877,-11526.195,-13437.781,-13256.737,-13178.263,-12753.956,-13072.764,-13216.962,-13271.715,-13895.054,-14004.386,-14485.877,-14846.541,-14959.237,-15310.199,-15207.947,-15256.406,-15080.806,-14790.3545,-14592.729,-14143.925,-13904.3955,-13551.373,-13310.041,-13198.113,-13084.6045,-13195.434,-13281.512,-13526.152,-13804.467,-14092.544,-14428.863,-14662.411,-14912.96,-15042.456,-15096.911,-15068.855,-14920.265,-14735.648,-14469.642,-14204.301,-13923.651,-13664.055,-13468.24,-13326.819,-13289.179,-13316.306,-13437.548,-13624.344,-13845.655,-14103.153,-14346.204,-14582.235,-14762.35,-14875.246,-14923.734,-14883.133,-14786.22,-14624.063,-14414.33,-14186.022,-13953.416,-13754.55,-13593.913,-13485.361,-13447.225,-13472.83,-13556.905,-13703.049,-13899.296,-14101.282,-14295.899,-14485.078,-14632.991,-14729.008,-14775.803,-14755.781,-14674.069,-14541.221,-14372.474,-14190.528,-14008.878,-13846.394,-13713.679,-13623.832,-13587.888,-13605.56,-13680.493,-13797.974,-13943.524,-14104.197,-14260.684,-14407.704,-14525.831,-14601.99,-14635.64,-14615.357,-14547.085,-14443.901,-14318.488,-14177.006,-14033.19,-13914.467,-13816.139,-13744.787,-13723.525,-13741.798,-13790.761,-13878.519,-13993.485,-14110.366,-14229.777,-14347.209,-14437.507,-14491.984,-14514.237,-14502.993,-14451.544,-14372.686,-14278.7295,-14172.699,-14073.123,-13982.489,-13903.38,-13851.126,-13830.319,-13841.751,-13884.568,-13955.447,-14032.565,-14108.152,-14199.546,-14287.265,-14351.748,-14396.184,-14410.036,-14404.169,-14374.99,-14310.263,-14241.491,-14167.315,-14091.582,-14029.035,-13968.211,-13930.857,-13915.728,-13920.697,-13952.411,-13993.107,-14048.119,-14111.246,-14174.066,-14225.724,-14264.17,-14298.143,-14307.651,-14299.655,-14279.3955,-14245.938,-14206.306,-14159.682,-14118.542,-14071.601,-14031.881,-14011.709,-13997.332,-14006.275,-14025.513,-14050.985,-14083.629,-14109.577,-14149.134,-14185.234,-14210.533,-14234.756,-14241.118,-14241.035,-14231.686,-14211.491,-14186.292,-14157.078,-14137.205,-14110.324,-14087.996,-14075.728,-14062.198,-14069.703,-14077.623,-14088.214,-14109.924,-14122.322,-14140.895,-14157.782,-14173.571,-14187.533,-14187.081,-14193.135,-14193.935,-14182.388,-14171.967,-14161.412,-14156.122,-14148.4795,-14139.078,-14134.734,-14130.289,-14129.343,-14125.449,-14123.952,-14133.422,-14135.239,-14132.357,-14134.478,-14140.797,-14150.002,-14150.388,-14146.887,-14150.882,-14157.272,-14153.887,-14152.405,-14164.033,-14172.4,-14180.35,-14176.287,-14163.0,-14170.029,-14166.997,-14152.471,-14151.368,-14137.439,-14119.523,-14118.649,-14118.191,-14118.073,-14117.771,-14114.37,-14121.702,-14129.628,-14134.97,-14147.498,-14158.333,-14173.951,-14190.655,-14197.369,-14201.121,-14196.276,-14186.068,-14178.244,-14164.978,-14149.768,-14135.854,-14120.695,-14113.117,-14109.853,-14101.855,-14099.227,-14107.076,-14118.169,-14132.242,-14152.269,-14173.212,-14193.314,-14207.06,-14207.679,-14206.33,-14203.204,-14192.213,-14179.835,-14165.89,-14143.342,-14119.202,-14107.725,-14096.663,-14081.715,-14077.878,-14082.004,-14094.238,-14110.367,-14125.676,-14149.398,-14171.235,-14188.675,-14207.818,-14215.653,-14215.035,-14213.928,-14208.694,-14195.083,-14171.372,-14143.9375,-14115.796,-14095.179,-14083.815,-14074.901,-14072.65,-14075.769,-14085.3545,-14099.215,-14119.65,-14152.49,-14183.794,-14205.33,-14213.65,-14221.677,-14229.851,-14220.97,-14215.171,-14205.45,-14178.101,-14150.362,-14122.663,-14103.597,-14083.928,-14061.483,-14060.531,-14068.183,-14081.653,-14103.511,-14123.467,-14147.324,-14171.528,-14193.874,-14210.776,-14223.06,-14231.382,-14221.254,-14204.084,-14188.382,-14169.532,-14148.017,-14114.933,-14087.8125,-14078.442,-14066.756,-14062.273,-14072.123,-14084.174,-14102.797,-14125.753,-14154.017,-14182.601,-14201.12,-14218.525,-14228.953,-14231.93,-14232.6045,-14224.81,-14210.778,-14188.976,-14161.866,-14135.954,-14115.949,-14097.942,-14084.959,-14083.362,-14080.513,-14086.757,-14102.266,-14115.713,-14140.403,-14170.96,-14196.2295,-14210.173,-14217.197,-14225.887,-14224.087,-14215.885,-14206.689,-14184.792,-14159.9,-14134.916,-14110.042,-14098.887,-14086.477,-14077.015,-14083.635,-14091.036,-14103.784,-14121.672,-14142.321,-14165.73,-14183.862,-14205.435,-14223.757,-14227.676,-14225.794,-14217.841,-14198.892,-14179.298,-14161.979,-14135.15,-14110.931,-14100.59,-14094.74,-14092.436,-14093.2,-14101.977,-14116.333,-14128.939,-14147.358,-14159.868,-14173.364,-14197.472,-14205.546,-14211.121,-14217.423,-14203.819,-14190.593,-14177.815,-14157.37,-14137.058,-14117.255,-14107.925,-14106.875,-14101.02,-14096.616,-14107.856,-14121.98,-14130.228,-14150.673,-14171.964,-14188.363,-14203.468,-14205.505,-14209.5625,-14211.928,-14203.152,-14196.085,-14180.369,-14160.241,-14148.186,-14130.174,-14110.162,-14103.701,-14106.138,-14108.502,-14112.108,-14121.62,-14133.905,-14147.626,-14161.718,-14174.19,-14186.955,-14195.911,-14198.357,-14194.242,-14189.268,-14180.78,-14164.815,-14154.707,-14144.012,-14131.187,-14125.025,-14117.607,-14109.598,-14107.254,-14112.289,-14116.682,-14124.838,-14143.1045,-14157.835,-14170.005,-14178.739,-14184.149,-14192.506,-14191.742,-14182.847,-14172.859,-14162.358,-14155.73,-14145.026,-14134.36,-14130.64,-14121.64,-14112.956,-14116.252,-14126.585,-14132.273,-14136.743,-14150.206,-14165.892,-14178.006,-14174.546,-14164.8545,-14176.963,-14192.28,-14186.838,-14172.206,-14163.146,-14157.752,-14145.629,-14131.267,-14128.683,-14124.725,-14116.196,-14118.977,-14118.946,-14119.884,-14128.65,-14138.73,-14150.237,-14153.263,-14160.739,-14166.491,-14162.975,-14166.724,-14165.318,-14161.065,-14156.952,-14147.165,-14143.378,-14139.974,-14130.601,-14125.516,-14123.639,-14121.436,-14125.142,-14129.323,-14133.738,-14141.771,-14147.302,-14152.257,-14154.55,-14153.773,-14154.324,-14154.842,-14152.751,-14150.724,-14149.581,-14144.233,-14138.671,-14131.884,-14127.389,-14126.6875,-14118.796,-14115.501,-14121.516,-14127.992,-14132.506,-14132.199,-14135.778,-14142.617,-14146.969,-14153.461,-14154.524,-14148.094,-14145.803,-14148.134,-14146.466,-14139.658,-14134.154,-14128.464,-14124.448,-14125.055,-14123.904,-14126.315,-14130.339,-14128.47,-14129.489,-14135.793,-14141.641,-14142.642,-14141.655,-14144.9,-14149.975,-14150.04,-14145.356,-14144.3,-14144.504,-14143.867,-14144.137,-14136.564,-14129.061,-14129.459,-14122.95,-14117.691,-14122.789,-14120.659,-14117.647,-14121.269,-14129.231,-14143.912,-14144.845,-14141.213,-14149.782,-14148.898,-14144.069,-14148.356,-14152.145,-14149.997,-14146.469,-14148.541,-14147.399,-14137.699,-14139.079,-14149.634,-14147.265,-14143.42,-14140.88,-14139.715,-14154.806,-14159.844,-14152.15,-14151.231,-14149.194,-14153.568,-14156.0,-14147.917,-14146.552,-14146.494,-14142.399,-14140.342,-14138.088,-14134.968,-14128.075,-14123.943,-14126.461,-14124.036,-14124.739,-14128.868,-14130.166,-14138.074,-14137.978,-14131.248,-14136.165,-14139.755,-14143.145,-14149.886,-14147.715,-14142.893,-14141.985,-14148.017,-14155.576,-14156.436,-14156.36,-14155.323,-14152.782,-14145.891,-14141.265,-14146.458,-14152.628,-14155.611,-14150.035,-14146.387,-14150.074,-14149.854,-14147.329,-14146.454,-14152.184,-14153.122,-14148.892,-14152.77,-14150.175,-14142.028,-14141.947,-14143.214,-14143.86,-14142.917,-14136.04,-14134.841,-14140.522,-14142.002,-14139.287,-14136.079,-14136.951,-14136.226,-14137.414,-14145.175,-14148.326,-14150.14,-14153.296,-14155.744,-14149.918,-14139.514,-14148.424,-14158.981,-14152.856,-14151.815,-14151.853,-14148.311,-14154.409,-14153.285,-14144.921,-14145.456,-14145.73,-14146.655,-14147.938,-14145.407,-14143.03,-14139.919,-14138.186,-14139.825,-14144.729,-14148.068,-14146.108,-14143.501,-14143.778,-14146.73,-14147.946,-14146.092,-14146.9375,-14145.862,-14138.849,-14135.7,-14134.882,-14137.111,-14142.692,-14145.06,-14148.104,-14146.6045,-14146.108,-14152.851,-14157.662,-14157.984,-14152.431,-14152.317,-14157.088,-14157.483,-14156.392,-14152.826,-14155.579,-14160.52,-14157.015,-14155.71,-14156.943,-14153.191,-14150.209,-14149.8955,-14149.325,-14151.019,-14150.247,-14150.832,-14155.373,-14157.04,-14159.643,-14154.941,-14149.388,-14156.197,-14156.772,-14149.424,-14153.746,-14162.305,-14160.437,-14163.396,-14165.92,-14157.048,-14158.099,-14164.773,-14167.366,-14170.78,-14170.131,-14170.295,-14171.631,-14161.706,-14157.084,-14165.217,-14160.776,-14157.576,-14166.705,-14164.793,-14157.398,-14154.865,-14148.527,-14143.412,-14147.086,-14148.542,-14144.912,-14146.578,-14153.919,-14154.88,-14147.258,-14145.696,-14149.748,-14153.051,-14157.843,-14161.178,-14162.493,-14160.603,-14159.347,-14163.6875,-14164.956,-14162.045,-14157.196,-14152.019,-14153.259,-14157.248,-14161.157,-14164.441,-14167.098,-14167.556,-14159.434,-14154.313,-14157.926,-14161.527,-14164.712,-14165.196,-14163.834,-14164.172,-14165.954,-14165.401,-14153.903,-14139.17,-14139.088,-14143.099,-14144.848,-14153.404,-14152.467,-14149.455,-14155.722,-14156.547,-14159.362,-14158.722,-14157.301,-14166.307,-14167.26,-14165.387,-14169.76,-14168.686,-14160.16,-14157.855,-14166.396,-14168.892,-14166.169,-14164.308,-14160.968,-14161.918,-14156.874,-14151.838,-14162.583,-14164.234,-14158.585,-14164.359,-14167.7705,-14168.898,-14171.158,-14171.651,-14170.448,-14165.651,-14159.205,-14156.584,-14163.016,-14164.932,-14159.799,-14161.161,-14161.474,-14158.585,-14158.259,-14157.612,-14160.18,-14159.677,-14152.16,-14159.082,-14168.622,-14161.044,-14159.076,-14161.627,-14155.945,-14152.96,-14155.213,-14158.126,-14158.667,-14158.0205,-14159.33,-14159.35,-14157.495,-14158.036,-14156.428,-14152.737,-14155.501,-14157.828,-14159.495,-14166.184,-14167.612,-14167.294,-14168.057,-14164.5625,-14165.935,-14163.426,-14157.9795,-14163.677,-14164.423,-14164.898,-14166.398,-14157.015,-14145.98,-14134.9375,-14140.16,-14148.76,-14146.583,-14152.11,-14145.929,-14144.891,-14157.0625,-14152.681,-14152.372,-14159.166,-14164.136,-14164.765,-14158.913,-14160.656,-14160.793,-14160.529,-14165.038,-14162.924,-14161.452,-14163.3955,-14160.448,-14154.128,-14158.087,-14165.666,-14159.385,-14156.732,-14162.221,-14163.818,-14165.941,-14162.761,-14154.649,-14151.428,-14150.728,-14151.638,-14158.005,-14159.568,-14153.002,-14153.795,-14154.902,-14150.594,-14150.573,-14156.72,-14162.264,-14157.788,-14155.679,-14156.937,-14155.715,-14159.589,-14161.18,-14161.051,-14164.605,-14166.069,-14158.738,-14153.342,-14156.878,-14155.666,-14154.695,-14161.083,-14166.585,-14159.755,-14154.693,-14163.553,-14161.819,-14161.71,-14167.913,-14160.112,-14159.484,-14162.722,-14153.827,-14148.023,-14152.897,-14154.843,-14146.116,-14148.201,-14155.636,-14151.353,-14152.387,-14157.695,-14156.794,-14149.269,-14145.463,-14152.015,-14151.854,-14150.957,-14153.558,-14148.54,-14147.589,-14145.347,-14138.493,-14141.419,-14142.326,-14140.377,-14142.191,-14139.519,-14142.708,-14146.247,-14140.025,-14141.277,-14143.793,-14140.699,-14143.608,-14148.259,-14149.243,-14144.572,-14135.916,-14132.676,-14139.922,-14147.667,-14148.112,-14152.985,-14153.701,-14150.405,-14160.895,-14164.183,-14156.522,-14153.177,-14152.558,-14153.196,-14145.921,-14137.36,-14135.397,-14135.597,-14137.596,-14131.385,-14125.279,-14133.252,-14140.31,-14136.709,-14128.684,-14122.309,-14118.501,-14115.312,-14110.922,-14111.745,-14123.078,-14127.752,-14123.045,-14123.2295,-14127.424,-14133.126,-14133.035,-14129.095,-14130.753,-14133.665,-14135.687,-14134.99,-14135.211,-14136.608,-14134.12,-14136.0,-14139.669,-14140.408,-14140.799,-14132.71,-14120.473,-14119.404,-14124.098,-14126.011,-14130.986,-14137.004,-14134.599,-14129.588,-14133.61,-14135.503,-14127.661,-14124.398,-14127.007,-14130.248,-14132.098,-14128.234,-14127.496,-14131.104,-14126.867,-14127.218,-14133.93,-14133.57,-14136.487,-14140.241,-14143.22,-14145.229,-14140.542,-14141.038,-14143.656,-14145.052,-14138.934,-14129.925,-14137.802,-14139.984,-14133.053,-14136.168,-14137.097,-14134.444,-14133.201,-14129.594,-14131.246,-14135.323,-14134.088,-14137.253,-14136.541,-14132.783,-14138.291,-14138.684,-14141.542,-14143.656,-14130.186,-14128.405,-14138.836,-14137.894,-14138.505,-14144.445,-14138.914,-14135.386,-14136.325,-14132.816,-14133.289,-14131.856,-14133.639,-14135.08,-14133.028,-14140.863,-14141.223,-14132.7,-14127.859,-14128.043,-14138.533,-14142.608,-14138.743,-14142.401,-14137.192,-14133.435,-14141.744,-14135.649,-14133.074,-14134.543,-14125.339,-14128.776,-14129.485,-14125.787,-14131.636,-14132.295,-14134.899,-14137.312,-14134.873,-14136.43,-14134.149,-14130.576,-14133.254,-14137.579,-14143.741,-14146.634,-14141.543,-14142.341,-14143.446,-14137.742,-14141.376,-14140.43,-14131.113,-14127.33,-14124.217,-14128.586,-14132.467,-14131.438,-14128.803,-14116.553,-14113.291,-14122.965,-14130.539,-14129.325,-14126.144,-14132.415,-14132.884,-14129.266,-14131.293,-14132.443,-14134.994,-14138.317,-14140.2295,-14139.592,-14138.61,-14137.964,-14138.882,-14142.538,-14143.74,-14142.879,-14139.304,-14137.518,-14139.177,-14141.372,-14140.523,-14132.802,-14133.202,-14139.259,-14139.245,-14144.007,-14152.311,-14152.964,-14149.983,-14150.005,-14147.671,-14142.205,-14141.758,-14143.729,-14141.437,-14139.888,-14137.247,-14136.88,-14143.742,-14142.734,-14139.368,-14138.214,-14142.811
-14150.666,-14141.047,-14137.126,-14141.47,-14139.715,-14139.558,-14134.696,-14135.61,-14141.104,-14145.428,-14148.777,-14146.961,-14144.963,-14134.911,-14128.647,-14133.962,-14137.498,-14142.122,-14144.904,-14145.624,-14148.508,-14146.487,-14143.399,-14148.466,-14151.431,-14147.239,-14146.858,-14149.239,-14148.519,-14145.737,-14144.404,-14145.877,-14144.688,-14140.015,-14139.996,-14143.971,-14144.72,-14142.374,-14140.256,-14141.038,-14143.632,-14143.153,-14141.723,-14147.153,-14149.014,-14137.996,-14136.226,-14144.3955,-14141.286,-14140.92,-14146.493,-14143.094,-14145.095,-14148.704,-14143.701,-14144.64,-14146.71,-14144.295,-14142.082,-14142.37,-14142.543,-14135.648,-14133.965,-14138.606,-14137.032,-14136.8125,-14136.639,-14131.786,-14137.834,-14146.963,-14142.6045,-14144.327,-14150.597,-14145.0625,-14141.98,-14143.03,-14139.487,-14136.477,-14138.339,-14144.091,-14145.003,-14133.826,-14128.458,-14136.396,-14136.732,-14134.959,-14137.1,-14135.313,-14135.214,-14135.965,-14140.815,-14144.632,-14137.06,-14129.434,-14130.178,-14134.762,-14134.855,-14132.622,-14134.198,-14138.657,-14141.505,-14139.444,-14140.926,-14144.843,-14141.499,-14138.768,-14138.08,-14135.131,-14137.877,-14138.018,-14136.2,-14143.708,-14144.651,-14140.069,-14139.955,-14139.375,-14136.879,-14133.34,-14133.097,-14135.288,-14135.146,-14126.984,-14122.266,-14128.859,-14131.217,-14128.123,-14127.279,-14130.739,-14126.166,-14118.104,-14120.808,-14121.808,-14117.416,-14113.3125,-14124.443,-14135.032,-14124.142,-14124.695,-14128.621,-14122.175,-14120.74,-14114.446,-14113.802,-14116.099,-14113.529,-14118.176,-14119.272,-14123.087,-14126.646,-14124.379,-14128.596,-14132.123,-14134.254,-14125.283,-14121.271,-14129.238,-14119.653,-14114.058,-14111.865,-14108.811,-14119.245,-14118.271,-14113.23,-14120.692,-14127.375,-14122.781,-14120.225,-14126.744,-14125.0205,-14124.826,-14127.62,-14124.947,-14124.758,-14123.817,-14123.146,-14121.871,-14122.826,-14128.55,-14129.893,-14132.469,-14136.742,-14134.255,-14131.113,-14135.216,-14140.422,-14138.339,-14138.223,-14140.787,-14136.666,-14136.418,-14137.782,-14134.536,-14131.833,-14126.257,-14131.078,-14139.66,-14135.75,-14137.088,-14137.836,-14134.631,-14134.797,-14126.007,-14122.884,-14131.543,-14131.68,-14125.291,-14123.222,-14126.896,-14129.945,-14128.858,-14130.0625,-14135.743,-14135.493,-14126.015,-14124.322,-14131.563,-14132.953,-14135.468,-14140.991,-14135.776,-14127.653,-14125.99,-14120.406,-14119.629,-14133.147,-14137.838,-14131.832,-14132.232,-14133.239,-14130.133,-14129.463,-14133.172,-14134.664,-14131.23,-14130.279,-14132.08,-14130.8545,-14135.296,-14141.594,-14138.964,-14141.002,-14140.848,-14136.494,-14141.404,-14145.696,-14144.839,-14134.146,-14127.547,-14133.118,-14130.433,-14128.658,-14132.116,-14131.971,-14128.797,-14126.864,-14131.3955,-14131.586,-14126.855,-14124.021,-14125.0205,-14131.189,-14130.6455,-14122.576,-14122.813,-14132.518,-14134.501,-14127.123,-14118.1875,-14112.001,-14117.896,-14117.932,-14112.659,-14121.691,-14122.261,-14119.346,-14128.062,-14129.749,-14123.368,-14121.293,-14127.531,-14126.958,-14118.852,-14118.619,-14123.173,-14125.303,-14119.079,-14112.933,-14113.748,-14114.659,-14111.645,-14106.256,-14107.513,-14113.006,-14112.467,-14105.734,-14108.455,-14117.355,-14114.949,-14112.19,-14113.55,-14117.628,-14117.208,-14113.0,-14121.56,-14124.493,-14116.361,-14106.601,-14100.797,-14111.592,-14117.413,-14110.261,-14112.253,-14126.8955,-14141.237,-14142.408,-14131.151,-14118.074,-14110.886,-14108.947,-14121.411,-14142.718,-14144.715,-14136.204,-14127.671,-14117.602,-14122.545,-14123.135,-14099.11,-14082.958,-14097.563,-14122.52,-14147.422,-14193.273,-14229.243,-14218.168,-14192.418,-14161.536,-14136.984,-14132.153,-14116.052,-14104.027,-14112.629,-14129.5,-14148.778,-14155.983,-14159.562,-14145.851,-14122.981,-14135.981,-14159.89,-14160.937,-14136.929,-14118.0205,-14109.142,-14093.622,-14116.788,-14151.84,-14175.487,-14211.869,-14222.395,-14220.838,-14210.57,-14189.316,-14170.427,-14145.12,-14153.091,-14160.766,-14153.507,-14149.677,-14131.453,-14146.449,-14157.006,-14140.007,-14133.567,-14100.444,-14057.604,-14063.998,-14145.363,-14217.802,-14220.999,-14227.221,-14204.042,-14163.052,-14172.999,-14157.66,-14124.794,-14114.521,-14115.187,-14141.648,-14174.02,-14234.36,-14275.164,-14240.471,-14213.741,-14197.512,-14180.021,-14188.6875,-14238.982,-14304.194,-14255.901,-14191.196,-14227.093,-14234.052,-14265.577,-14282.275,-14183.439,-14140.628,-14124.934,-14117.133,-14170.366,-14216.881,-14281.214,-14259.671,-14156.912,-14103.582,-14061.868,-14043.954,-14025.062,-13992.052,-14008.287,-14017.296,-13965.478,-13950.779,-14021.858,-14078.016,-14090.408,-14084.088,-14068.484,-14037.4795,-13981.043,-13973.358,-14020.924,-14041.744,-14034.866,-14060.5625,-14083.58,-14030.765,-13955.449,-13891.552,-13892.765,-13969.707,-13983.643,-13975.586,-13978.833,-13959.158,-13968.58,-13933.102,-13894.777,-13930.312,-13950.236,-13925.393,-13865.164,-13808.192,-13787.548,-13803.161,-13802.408,-13795.467,-13835.737,-13820.651,-13789.409,-13795.066,-13757.816,-13735.235,-13747.85,-13739.1,-13706.051,-13713.819,-13764.109,-13777.39,-13763.307,-13745.236,-13757.424,-13764.411,-13680.756,-13597.674,-13601.35,-13681.379,-13787.664,-13803.231,-13750.516,-13755.244,-13771.203,-13714.051,-13612.543,-13554.983,-13606.117,-13693.302,-13730.998,-13691.651,-13586.081,-13526.595,-13557.7,-13580.421,-13568.816,-13553.136,-13486.982,-13427.231,-13455.195,-13472.742,-13444.433,-13423.615,-13389.776,-13346.65,-13344.221,-13395.981,-13465.62,-13466.65,-13398.79,-13368.781,-13383.909,-13408.395,-13428.448,-13399.29,-13333.008,-13312.777,-13379.18,-13469.288,-13490.031,-13436.32,-13396.274,-13349.704,-13252.609,-13200.694,-13212.659,-13260.798,-13281.089,-13263.462,-13287.724,-13261.293,-13244.748,-13289.045,-13241.276,-13198.559,-13195.366,-13180.53,-13198.373,-13171.227,-13131.086,-13145.072,-13141.516,-13127.824,-13134.738,-13144.385,-13131.072,-13109.136,-13174.568,-13239.357,-13153.416,-13054.237,-13051.998,-13082.134,-13101.537,-13047.633,-12926.678,-12889.731,-12930.915,-12945.418,-12948.258,-12932.055,-12911.974,-12905.907,-12917.485,-12967.5625,-13022.788,-13036.195,-12945.067,-12859.257,-12885.518,-12878.3545,-12807.39,-12780.447,-12793.129,-12772.676,-12769.94,-12846.903,-12905.751,-12860.952,-12752.773,-12735.736,-12804.528,-12834.311,-12849.9,-12817.265,-12795.731,-12827.287,-12703.807,-12569.704,-12627.733,-12662.15,-12629.17,-12604.857,-12545.784,-12524.771,-12565.249,-12604.362,-12613.005,-12572.874,-12555.2,-12578.471,-12561.891,-12548.79,-12592.804,-12586.937,-12503.096,-12406.687,-12323.222,-12314.503,-12327.562,-12309.531,-12322.534,-12386.821,-12457.641,-12414.893,-12354.995,-12420.934,-12520.484,-12560.919,-12435.6455,-12255.843,-12227.608,-12263.185,-12285.652,-12274.157,-12238.58,-12215.44,-12167.6,-12147.675,-12147.565,-12205.938,-12344.377,-12338.931,-12258.821,-12205.549,-12103.988,-12043.725,-11983.67,-11918.243,-11954.879,-12014.193,-12028.02,-12039.952,-12019.297,-11933.075,-11913.558,-12004.276,-12036.324,-11960.222,-11964.453,-12090.992,-12164.287,-12181.647,-12139.369,-11961.715,-11810.31,-11794.9375,-11879.62,-11930.879,-11766.429,-11660.561,-11768.299,-11846.25,-11873.369,-11788.963,-11671.612,-11649.141,-11670.279,-11757.123,-11735.045,-11651.463,-11665.4,-11667.545,-11698.432,-11752.363,-11782.061,-11783.327,-11695.519,-11577.91,-11504.655,-11523.03,-11661.288,-11713.924,-11538.193,-11392.269,-11406.194,-11459.613,-11512.719,-11509.65,-11481.86,-11500.566,-11507.899,-11447.455,-11354.615,-11389.609,-11560.06,-11622.866,-11536.055,-11496.401,-11485.794,-11351.552,-11243.035,-11294.72,-11287.716,-11186.805,-11211.395,-11289.118,-11253.977,-11163.602,-11126.629,-11219.226,-11375.988,-11415.403,-11282.517,-11146.285,-11120.67,-11088.231,-11092.066,-11127.666,-11015.288,-10930.797,-11017.991,-11110.094,-11117.787,-11099.675,-11122.856,-11134.706,-11077.212,-10953.667,-10857.657,-10876.09,-10890.211,-10871.075,-10919.709,-10961.934,-10926.465,-10909.861,-10938.444,-10906.365,-10833.328,-10912.594,-11035.761,-10908.858,-10765.842,-10774.126,-10761.893,-10765.325,-10749.746,-10752.311,-10804.924,-10751.493,-10648.68,-10625.029,-10704.548,-10736.078,-10654.863,-10605.019,-10619.769,-10596.061,-10500.364,-10553.421,-10715.546,-10750.607,-10769.767,-10839.708,-10869.3955,-10807.321,-10691.547,-10567.052,-10434.476,-10343.949,-10330.924,-10390.995,-10416.218,-10366.952,-10324.205,-10288.698,-10285.233,-10328.311,-10381.246,-10407.05,-10399.416,-10412.25,-10414.04,-10347.536,-10323.8545,-10390.73,-10425.179,-10502.908,-10599.979,-10469.532,-10263.126,-10206.821,-10249.229,-10223.648,-10071.285,-10079.513,-10253.126,-10284.805,-10193.306,-10160.378,-10269.182,-10324.124,-10179.318,-10093.4,-10168.441,-10218.232,-10175.321,-10058.549,-9965.309,-10003.288,-10062.329,-10052.016,-10019.764,-9975.858,-9937.857,-9954.27,-10016.638,-10042.032,-10010.6,-9999.456,-10019.298,-9996.3,-9923.121,-9918.503,-10043.376,-10106.132,-10011.195,-9953.258,-9923.436,-9848.047,-9826.636,-9826.846,-9816.508,-9788.313,-9796.848,-9944.971,-9992.222,-9821.962,-9715.186,-9772.577,-9844.239,-9861.561,-9924.465,-9941.589,-9818.701,-9686.783,-9557.666,-9562.344,-9704.964,-9768.285,-9733.408,-9621.775,-9593.677,-9640.378,-9632.693,-9644.697,-9651.035,-9651.609,-9618.494,-9596.533,-9620.864,-9566.689,-9572.768,-9670.163,-9672.078,-9616.607,-9577.114,-9507.233,-9470.518,-9511.014,-9560.114,-9599.526,-9509.108,-9427.877,-9494.524,-9491.5205,-9505.894,-9513.621,-9412.219,-9378.744,-9398.849,-9452.366,-9501.88,-9464.446,-9421.154,-9451.02,-9496.68,-9473.343,-9451.964,-9474.994,-9457.925,-9442.534,-9540.8125,-9580.643,-9437.663,-9362.141,-9406.962,-9403.567,-9322.0625,-9207.89,-9145.904,-9148.135,-9159.576,-9195.09,-9222.098,-9203.412,-9218.326,-9296.884,-9368.283,-9361.512,-9355.68,-9382.051,-9293.418,-9231.993,-9298.561,-9284.455,-9242.64,-9243.9795,-9241.754,-9303.495,-9321.355,-9203.123,-9125.3545,-9190.031,-9235.305,-9096.291,-8943.328,-8992.104,-9145.766,-9293.768,-9324.94,-9151.348,-9052.667,-9112.556,-9137.312,-9245.224,-9312.294,-9226.814,-9289.994,-9327.775,-9111.838,-8903.685,-8866.801,-8886.448,-8887.552,-8949.252,-9013.902,-9074.744,-9068.707,-8903.791,-8872.996,-8934.681,-8929.039,-8987.812,-9030.382,-9033.249,-9032.967,-9065.96,-9110.994,-9066.703,-9010.945,-8910.991,-8842.603,-8889.69,-8889.69,-8854.624,-8823.948,-8880.995,-8972.717,-8940.829,-8868.229,-8770.002,-8705.394,-8718.615,-8778.905,-8822.128,-8776.721,-8772.713,-8793.683,-8856.719,-8966.378,-8921.209,-8815.584,-8796.862,-8805.075,-8785.631,-8773.531,-8795.958,-8828.31,-8837.809,-8780.034,-8725.042,-8741.987,-8754.622,-8706.8125,-8697.85,-8704.331,-8639.523,-8708.862,-8817.369,-8709.131,-8587.045,-8577.242,-8619.905,-8635.809,-8599.547,-8621.612,-8659.63,-8705.669,-8799.92,-8823.218,-8779.8545,-8709.379,-8596.77,-8543.329,-8572.719,-8579.39,-8519.636,-8463.646,-8481.345,-8506.1875,-8525.794,-8559.814,-8565.441,-8591.553,-8590.299,-8545.269,-8557.324,-8590.58,-8581.387,-8506.601,-8446.675,-8436.412,-8417.001,-8432.665,-8489.07,-8531.933,-8545.386,-8603.931,-8636.411,-8513.996,-8422.834,-8457.708,-8518.233,-8486.054,-8391.378,-8425.173,-8427.683,-8357.859,-8465.955,-8575.07,-8510.456,-8412.749,-8337.231,-8302.393,-8282.474,-8273.868,-8338.609,-8346.892,-8327.346,-8389.37,-8419.932,-8409.947,-8339.333,-8274.844,-8285.534,-8278.099,-8291.156,-8295.467,-8315.543,-8406.207,-8439.569,-8394.109,-8340.017,-8315.888,-8306.922,-8348.287,-8395.5,-8371.258,-8417.6045,-8505.258,-8523.243,-8460.086,-8326.99,-8269.4795,-8245.794,-8196.595,-8215.769,-8271.328,-8299.562,-8242.833,-8199.576,-8241.062,-8240.044,-8233.834,-8249.338,-8258.527,-8281.567,-8290.654,-8303.832,-8250.686,-8169.5874,-8180.7285,-8171.1665,-8155.556,-8185.2676,-8201.36,-8214.869,-8212.423,-8233.106,-8252.362,-8229.973,-8239.854,-8267.929,-8302.472,-8287.058,-8200.751,-8164.643,-8159.368,-8132.982,-8117.7373,-8130.51,-8135.9893,-8110.316,-8111.2207,-8152.516,-8222.167,-8261.491,-8215.041,-8157.3594,-8127.5566,-8153.093,-8210.694,-8212.046,-8182.5864,-8141.0776,-8114.18,-8120.916,-8120.5024,-8132.8564,-8134.9795,-8130.145,-8151.1567,-8142.98,-8137.0386,-8165.9907,-8167.7246,-8154.487,-8171.538,-8186.697,-8177.6167,-8176.052,-8176.1616,-8174.666,-8181.9873,-8178.9634,-8191.4487,-8217.763,-8197.183,-8153.3965,-8144.825,-8155.1895,-8169.6943,-8193.66,-8200.249,-8183.1655,-8163.6763,-8158.316,-8166.5776,-8175.182,-8183.1187,-8187.333,-8189.671,-8190.6187,-8187.6714,-8190.1235,-8196.289,-8197.311,-8198.95,-8206.654,-8203.241,-8196.466,-8206.601,-8218.767,-8215.4375,-8201.476,-8202.28,-8213.253,-8224.345,-8235.485,-8229.847,-8223.761,-8226.037,-8224.154,-8221.321,-8231.069,-8247.658,-8242.155,-8235.086,-8244.802,-8247.642
-8243.938,-8244.093,-8247.911,-8260.569,-8276.795,-8279.525,-8281.648,-8292.932,-8300.052,-8299.225,-8294.371,-8298.424,-8304.857,-8297.765,-8296.644,-8310.697,-8313.694,-8316.581,-8328.947,-8325.262,-8326.558,-8338.618,-8344.639,-8351.648,-8350.875,-8348.42,-8349.362,-8352.954,-8358.089,-8346.607,-8339.733,-8354.079,-8359.925,-8359.077,-8368.582,-8377.276,-8381.229,-8382.147,-8382.23,-8389.747,-8403.27,-8413.267,-8418.233,-8432.256,-8449.684,-8450.192,-8443.333,-8445.934,-8457.711,-8470.501,-8475.481,-8476.833,-8480.199,-8481.881,-8484.593,-8484.872,-8484.472,-8491.26,-8499.492,-8511.478,-8526.307,-8534.665,-8536.049,-8540.126,-8545.648,-8543.015,-8546.668,-8556.111,-8559.28,-8566.822,-8577.605,-8586.891,-8606.607,-8626.834,-8613.459,-8579.154,-8575.844,-8596.99,-8607.312,-8628.852,-8652.291,-8654.086,-8673.562,-8698.362,-8713.914,-8729.489,-8741.094,-8762.581,-8771.454,-8777.49,-8782.28,-8775.458,-8786.276,-8789.438,-8793.155,-8804.996,-8807.176,-8824.516,-8849.214,-8867.448,-8877.797,-8894.139,-8917.297,-8925.803,-8929.202,-8928.171,-8933.475,-8958.644,-8978.262,-8982.492,-8994.512,-9015.801,-9022.593,-9024.316,-9035.983,-9046.761,-9047.167,-9042.005,-9047.518,-9061.732,-9068.69,-9065.718,-9067.383,-9084.775,-9105.574,-9121.511,-9138.547,-9148.364,-9147.611,-9152.869,-9163.601,-9171.8125,-9182.397,-9196.875,-9210.391,-9225.119,-9243.224,-9259.3,-9280.012,-9302.766,-9315.325,-9310.871,-9286.071,-9268.934,-9267.079,-9258.919,-9250.034,-9240.202,-9240.748,-9261.597,-9269.507,-9265.92,-9260.563,-9239.893,-9229.756,-9238.889,-9240.532,-9232.753,-9227.775,-9227.39,-9232.008,-9241.391,-9240.497,-9229.148,-9222.902,-9215.987,-9209.028,-9215.142,-9217.839,-9208.717,-9205.736,-9205.995,-9210.7295,-9217.808,-9218.959,-9225.792,-9235.747,-9251.644,-9266.191,-9266.366,-9268.674,-9272.832,-9276.35,-9277.365,-9277.495,-9289.253,-9290.708,-9272.646,-9262.344,-9258.832,-9256.155,-9269.059,-9270.14,-9256.682,-9274.438,-9303.47,-9316.522,-9317.111,-9318.241,-9329.9,-9332.018,-9330.354,-9332.151,-9338.976,-9348.371,-9341.939,-9339.38,-9345.924,-9347.095,-9345.88,-9349.91,-9358.805,-9355.373,-9355.264,-9366.929,-9366.444,-9367.912,-9378.064,-9378.928,-9382.602,-9392.143,-9399.74,-9407.84,-9409.109,-9409.61,-9411.267,-9417.742,-9433.832,-9440.474,-9439.953,-9438.188,-9437.32,-9438.785,-9438.154,-9440.676,-9444.666,-9460.503,-9474.806,-9479.845,-9511.376,-9537.904,-9532.847,-9529.355,-9528.055,-9529.131,-9512.159,-9477.956,-9465.435,-9446.667,-9438.099,-9455.7295,-9458.943,-9465.617,-9470.948,-9474.396,-9489.354,-9500.698,-9521.428,-9529.833,-9517.34,-9531.604,-9564.402,-9602.031,-9649.135,-9655.57,-9637.926,-9644.972,-9641.332,-9623.144,-9600.916,-9580.701,-9582.895,-9600.197,-9627.2295,-9632.458,-9618.682,-9653.126,-9689.188,-9664.082,-9642.59,-9613.657,-9590.9795,-9662.835,-9723.097,-9712.928,-9744.657,-9785.203,-9765.101,-9766.003,-9744.085,-9642.212,-9605.235,-9628.468,-9650.372,-9669.072,-9662.221,-9649.314,-9605.618,-9627.492,-9731.72,-9777.428,-9775.708,-9745.49,-9765.648,-9819.206,-9744.114,-9633.23,-9596.553,-9590.0,-9615.497,-9679.381,-9738.273,-9784.03,-9835.01,-9865.6,-9895.144,-9906.338,-9832.922,-9757.974,-9735.827,-9695.793,-9628.346,-9595.32,-9638.395,-9729.443,-9818.163,-9903.257,-9955.383,-9903.468,-9838.909,-9812.359,-9726.757,-9687.06,-9682.24,-9631.259,-9690.733,-9757.116,-9752.446,-9766.65,-9709.042,-9664.344,-9676.204,-9663.786,-9660.997,-9640.704,-9628.72,-9642.288,-9679.361,-9726.932,-9746.727,-9831.063,-9921.127,-9931.239,-9935.881,-9897.484,-9805.194,-9751.136,-9726.087,-9702.904,-9738.353,-9782.798,-9778.989,-9748.361,-9705.739,-9731.07,-9744.6875,-9731.125,-9786.574,-9788.368,-9797.96,-9844.766,-9842.639,-9875.953,-9864.874,-9801.347,-9746.45,-9660.085,-9616.791,-9612.59,-9617.952,-9664.62,-9712.6875,-9749.735,-9793.009,-9813.985,-9797.291,-9762.929,-9760.312,-9779.974,-9730.29,-9661.882,-9640.07,-9639.666,-9682.453,-9751.584,-9834.935,-9888.027,-9869.513,-9836.89,-9815.74,-9784.8955,-9707.063,-9675.089,-9728.591,-9720.638,-9668.511,-9651.034,-9668.735,-9683.062,-9657.401,-9641.216,-9628.5,-9629.78,-9673.4375,-9746.67,-9829.402,-9797.82,-9755.874,-9853.7295,-9891.092,-9820.1,-9772.043,-9801.095,-9832.451,-9724.085,-9620.358,-9633.549,-9687.485,-9754.848,-9691.019,-9555.15,-9585.863,-9688.887,-9722.056,-9692.488,-9627.735,-9607.808,-9645.367,-9739.322,-9889.941,-9894.183,-9714.118,-9638.515,-9688.1,-9660.56,-9602.966,-9648.492,-9773.281,-9845.551,-9783.871,-9715.778,-9754.596,-9800.852,-9760.748,-9643.506,-9587.305,-9673.249,-9731.567,-9732.644,-9770.56,-9789.692,-9768.729,-9702.994,-9617.703,-9609.282,-9688.117,-9761.916,-9692.258,-9552.453,-9538.774,-9583.133,-9597.119,-9636.051,-9696.133,-9759.484,-9819.983,-9790.907,-9723.413,-9746.888,-9750.948,-9716.198,-9720.208,-9700.973,-9626.04,-9556.467,-9590.214,-9667.852,-9713.62,-9707.018,-9657.996,-9653.828,-9680.073,-9799.244,-9896.3545,-9735.734,-9563.654,-9598.749,-9650.986,-9560.442,-9482.1455,-9517.855,-9520.021,-9510.04,-9551.486,-9612.646,-9766.872,-9961.588,-9942.019,-9772.327,-9774.486,-9864.945,-9878.195,-9794.61,-9581.487,-9485.762,-9509.856,-9449.577,-9447.118,-9496.986,-9513.393,-9569.667,-9672.06,-9707.923,-9677.124,-9721.248,-9727.798,-9608.583,-9480.432,-9458.308,-9525.94,-9544.993,-9590.657,-9692.412,-9731.034,-9618.302,-9525.692,-9660.379,-9687.416,-9564.99,-9494.605,-9472.192,-9629.777,-9738.858,-9636.125,-9527.562,-9469.23,-9509.6045,-9636.524,-9685.192,-9575.325,-9458.342,-9440.598,-9468.864,-9593.697,-9797.02,-9814.891,-9624.473,-9577.844,-9671.088,-9733.121,-9755.215,-9551.434,-9332.663,-9378.002,-9437.363,-9506.84,-9595.044,-9568.837,-9575.852,-9654.614,-9710.268,-9676.001,-9559.672,-9392.572,-9224.103,-9290.34,-9422.517,-9357.818,-9390.196,-9536.072,-9611.7,-9600.722,-9477.235,-9409.271,-9418.256,-9361.356,-9309.912,-9438.317,-9621.134,-9604.353,-9571.837,-9569.355,-9436.272,-9392.45,-9469.8,-9388.811,-9259.39,-9310.17,-9442.066,-9552.869,-9588.406,-9529.537,-9406.965,-9372.031,-9473.637,-9435.915,-9347.4375,-9307.771,-9195.338,-9173.2295,-9224.9795,-9254.819,-9293.363,-9303.9,-9269.409,-9238.437,-9279.751,-9314.726,-9282.519,-9289.882,-9423.44,-9553.021,-9522.4375,-9383.059,-9145.266,-9038.863,-9210.466,-9230.4,-9115.182,-9133.143,-9155.431,-9181.092,-9178.976,-9136.552,-9124.231,-9123.273,-9179.216,-9216.908,-9222.48,-9264.886,-9306.251,-9310.113,-9305.881,-9362.061,-9279.751,-9138.331,-9266.799,-9364.455,-9313.64,-9366.749,-9363.649,-9218.574,-9182.551,-9244.406,-9207.767,-9200.486,-9205.901,-9142.003,-9236.557,-9337.64,-9287.361,-9243.117,-9198.653,-9180.835,-9195.394,-9141.995,-9091.06,-9157.251,-9206.258,-9197.313,-9174.181,-9050.194,-8968.703,-8983.609,-9004.687,-9046.137,-9135.337,-9226.232,-9129.815,-8987.48,-9019.014,-9113.899,-9156.56,-9185.193,-9246.756,-9218.789,-9150.769,-9102.975,-9042.734,-9086.368,-9202.009,-9232.993,-9087.137,-8950.6455,-9001.962,-9147.149,-9260.527,-9219.093,-9133.542,-9136.618,-9102.383,-8983.701,-8995.929,-9081.567,-8972.525,-8947.843,-9160.919,-9314.36,-9227.806,-9067.866,-9081.52,-9068.022,-9042.641,-9133.06,-9131.928,-9072.541,-9110.604,-9297.393,-9407.842,-9290.261,-9066.029,-8843.132,-8843.004,-8944.609,-8957.084,-8985.028,-8989.118,-9023.475,-9128.112,-9203.223,-9249.387,-9197.17,-9049.167,-8965.61,-8933.825,-8956.569,-9062.656,-9095.393,-9088.071,-9115.27,-9139.169,-9155.999,-9014.81,-8817.195,-8871.991,-8998.545,-8978.081,-9009.961,-9098.674,-9118.237,-9191.441,-9321.84,-9395.039,-9307.525,-9058.47,-8889.654,-8899.063,-8939.453,-8957.588,-8967.844,-8925.66,-8959.953,-9118.318,-9179.766,-9129.665,-9044.638,-8971.381,-8939.179,-8949.887,-8999.397,-8983.622,-9001.758,-9096.388,-9146.047,-9106.914,-8936.515,-8822.889,-8832.248,-8863.762,-8920.89,-8955.3125,-9027.504,-9057.166,-8994.69,-8997.781,-8961.365,-8892.966,-8963.924,-9083.687,-9042.411,-8845.306,-8795.375,-8968.385,-9021.381,-8871.255,-8838.1455,-8875.805,-8822.313,-8857.429,-8973.246,-9095.514,-9100.1455,-8935.521,-8842.284,-8863.221,-8932.453,-8912.767,-8853.262,-8928.862,-8979.048,-9012.64,-9093.461,-9131.917,-9088.381,-9030.449,-8994.911,-8866.794,-8818.423,-8887.104,-8895.601,-8960.33,-9046.225,-8960.317,-8751.8545,-8728.07,-8844.723,-8847.262,-8924.32,-9048.119,-9108.949,-9169.454,-9033.738,-8823.049,-8764.0,-8739.481,-8763.569,-8837.731,-8857.598,-8850.322,-8850.052,-8863.136,-8862.201,-8815.594,-8794.869,-8803.42,-8773.653,-8752.019,-8781.51,-8827.747,-8871.508,-8893.152,-8881.354,-8903.901,-8979.921,-9005.438,-8952.343,-8858.103,-8794.04,-8857.455,-8921.987,-8905.594,-8899.273,-8853.883,-8752.531,-8663.897,-8678.832,-8720.551,-8665.656,-8673.996,-8734.38,-8795.076,-8905.054,-8992.066,-9028.159,-8985.101,-8946.638,-8887.5205,-8772.548,-8745.94,-8757.486,-8791.585,-8801.676,-8821.0205,-8961.741,-9004.412,-8899.408,-8768.711,-8716.786,-8765.747,-8717.112,-8600.08,-8547.704,-8608.993,-8798.419,-8942.321,-8916.944,-8812.165,-8752.845,-8760.016,-8838.4795,-8940.714,-8952.376,-8881.704,-8763.127,-8648.802,-8670.957,-8794.562,-8830.974,-8821.247,-8865.813,-8864.23,-8828.348,-8771.415,-8689.224,-8709.052,-8777.231,-8761.1875,-8706.3545,-8771.951,-8846.241,-8745.88,-8720.583,-8774.914,-8743.71,-8739.956,-8751.515,-8859.084,-8954.889,-8787.915,-8660.929,-8685.413,-8635.65,-8583.631,-8594.413,-8643.18,-8681.585,-8675.05,-8775.267,-8939.99,-8970.41,-8871.065,-8760.441,-8726.643,-8705.235,-8718.958,-8745.516,-8694.919,-8665.894,-8606.866,-8614.92,-8711.596,-8680.201,-8655.334,-8638.115,-8652.419,-8765.559,-8832.061,-8941.812,-8994.891,-8878.602,-8732.646,-8611.678,-8608.951,-8665.203,-8669.452,-8656.785,-8670.534,-8768.455,-8877.081,-8830.349,-8708.767,-8664.241,-8568.498,-8489.954,-8578.252,-8613.223,-8604.927,-8644.121,-8664.485,-8740.717,-8831.613,-8875.332,-8798.181,-8633.208,-8599.239,-8579.405,-8575.748,-8698.89,-8744.945,-8729.656,-8699.445,-8636.584,-8628.98,-8636.8545,-8674.885,-8837.141,-9036.932,-8998.126,-8747.939,-8623.458,-8663.696,-8689.358,-8632.901,-8613.145,-8666.452,-8729.394,-8795.13,-8739.345,-8661.645,-8654.323,-8558.58,-8529.971,-8571.773,-8565.5625,-8627.474,-8645.309,-8658.714,-8733.169,-8688.784,-8595.649,-8525.985,-8498.808,-8561.149,-8635.397,-8695.725,-8776.9375,-8887.51,-8921.918,-8803.0,-8686.786,-8707.958,-8735.7,-8658.853,-8684.955,-8874.454,-8898.779,-8621.515,-8376.162,-8431.111,-8543.21,-8554.5625,-8589.119,-8605.328,-8613.531,-8639.729,-8662.615,-8687.782,-8647.468,-8635.382,-8652.919,-8590.274,-8576.871,-8600.436,-8567.0205,-8608.29,-8714.258,-8714.675,-8659.188,-8697.286,-8763.381,-8674.812,-8555.3125,-8594.253,-8600.709,-8538.395,-8500.584,-8434.092,-8484.402,-8684.366,-8831.173,-8772.511,-8563.6045,-8523.701,-8686.262,-8727.244,-8654.605,-8589.986,-8466.45,-8419.969,-8435.347,-8411.514,-8429.559,-8462.644,-8558.405,-8575.917,-8487.109,-8504.508,-8554.364,-8590.167,-8537.894,-8475.405,-8479.27,-8404.68,-8369.252,-8367.98,-8355.69,-8460.144,-8615.05,-8686.1045,-8599.04,-8501.8545,-8602.258,-8659.967,-8540.728,-8493.036,-8435.256,-8391.926,-8480.893,-8493.863,-8532.48,-8585.993,-8453.699,-8292.094,-8279.113,-8368.869,-8384.719,-8339.792,-8298.941,-8332.134,-8474.181,-8564.261,-8604.634,-8627.724,-8609.43,-8533.784,-8481.481,-8549.779,-8592.657,-8581.0,-8499.358,-8370.351,-8334.372,-8325.567,-8322.541,-8339.438,-8376.546,-8441.456,-8463.734,-8436.716,-8415.731,-8468.376,-8491.4375,-8413.031,-8430.711,-8488.057,-8428.269,-8393.033,-8393.268,-8378.201,-8368.442,-8358.815,-8420.271,-8442.975,-8369.237,-8331.918,-8323.4375,-8320.079,-8315.423,-8325.035,-8341.514,-8344.75,-8369.451,-8375.105,-8371.067,-8410.077,-8464.834,-8502.076,-8524.84,-8514.155,-8425.894,-8338.229,-8335.454,-8369.156,-8390.604,-8378.547,-8341.168,-8324.244,-8341.439,-8351.505,-8337.886,-8351.573,-8405.109,-8442.685,-8435.129,-8403.804,-8380.125,-8425.402,-8495.228,-8434.749,-8354.349,-8393.989,-8416.762,-8400.152,-8407.642,-8381.033,-8354.169,-8378.234,-8378.844,-8371.652,-8384.882
-8384.439,-8393.206,-8386.455,-8384.657,-8407.026,-8415.148,-8419.781,-8400.537,-8405.826,-8432.565,-8421.487,-8431.716,-8444.373,-8426.369,-8401.9375,-8381.794,-8393.805,-8407.173,-8382.542,-8372.746,-8397.552,-8400.285,-8389.706,-8392.802,-8395.647,-8400.42,-8398.812,-8395.236,-8402.271,-8396.537,-8386.692,-8391.844,-8387.297,-8385.321,-8391.275,-8384.193,-8378.137,-8360.866,-8341.838,-8363.796,-8410.792,-8427.399,-8427.002,-8431.066,-8387.2,-8352.82,-8362.065,-8368.645,-8388.567,-8380.022,-8378.167,-8403.728,-8404.64,-8427.0,-8441.649,-8432.639,-8419.427,-8400.4,-8416.462,-8437.635,-8442.086,-8433.319,-8424.225,-8453.781,-8483.225,-8470.584,-8460.827,-8505.562,-8544.858,-8529.723,-8528.126,-8554.589,-8575.308,-8586.269,-8582.198,-8573.682,-8574.942,-8576.542,-8565.61,-8551.009,-8565.4795,-8622.39,-8648.493,-8616.235,-8612.81,-8641.599,-8670.964,-8686.936,-8671.058,-8676.633,-8691.211,-8702.526,-8746.955,-8753.3,-8724.598,-8736.249,-8761.339,-8770.127,-8771.424,-8767.168,-8753.721,-8747.245,-8757.684,-8760.734,-8762.365,-8773.643,-8778.9375,-8790.159,-8802.948,-8807.415,-8830.456,-8859.112,-8869.636,-8877.998,-8877.993,-8874.839,-8908.642,-8940.655,-8931.308,-8927.669,-8925.848,-8906.516,-8899.102,-8936.783,-8981.983,-8966.756,-8971.366,-9011.265,-8999.048,-8986.194,-9006.903,-9026.725,-9035.449,-9039.2,-9023.9375,-9012.869,-9064.949,-9106.348,-9098.817,-9083.382,-9057.684,-9050.673,-9026.319,-8991.193,-9020.984,-9048.303,-9033.625,-9042.823,-9081.155,-9098.629,-9087.347,-9061.378,-9044.92,-9065.4795,-9074.472,-9064.254,-9056.044,-9042.803,-9048.827,-9049.916,-9050.126,-9061.576,-9060.645,-9062.365,-9069.939,-9075.88,-9084.268,-9128.783,-9169.111,-9148.617,-9131.695,-9147.249,-9170.372,-9154.327,-9091.551,-9071.774,-9107.25,-9162.316,-9239.626,-9284.382,-9246.24,-9139.874,-9054.098,-9079.017,-9130.569,-9138.747,-9136.592,-9123.708,-9127.735,-9154.731,-9171.933,-9169.73,-9161.607,-9153.056,-9160.596,-9228.969,-9306.953,-9328.907,-9296.991,-9233.629,-9214.506,-9217.948,-9134.74,-9051.563,-9076.266,-9102.802,-9107.589,-9167.779,-9255.837,-9348.736,-9354.598,-9246.398,-9195.777,-9137.012,-9045.58,-9119.4,-9247.022,-9253.136,-9153.904,-9072.876,-9076.602,-9060.366,-9035.365,-9039.716,-9001.904,-8967.6875,-9068.436,-9211.222,-9285.651,-9337.336,-9348.481,-9323.975,-9153.906,-8946.397,-8957.789,-9016.595,-9063.639,-9083.237,-9016.129,-9001.143,-9056.961,-9083.235,-9012.803,-8994.695,-9061.3545,-9131.87,-9275.6045,-9325.648,-9163.595,-8918.562,-8790.606,-8877.566,-8941.541,-8887.838,-9012.713,-9280.557,-9243.802,-8998.976,-8869.931,-8846.472,-8924.673,-8953.048,-8930.547,-8968.928,-8960.865,-8953.82,-8986.396,-9049.136,-9134.992,-9093.824,-8928.432,-8835.113,-8819.641,-8806.503,-8800.059,-8706.314,-8671.506,-8758.493,-8768.048,-8812.861,-8899.287,-8986.31,-9094.844,-9079.894,-8940.8955,-8765.496,-8701.09,-8703.778,-8654.647,-8720.1045,-8824.033,-8773.038,-8748.037,-8938.162,-9095.33,-8960.162,-8844.568,-8895.058,-8821.29,-8762.278,-8804.164,-8731.675,-8666.261,-8637.447,-8628.42,-8692.844,-8695.626,-8670.563,-8678.56,-8711.36,-8754.28,-8796.911,-8877.805,-8915.26,-8895.135,-8828.526,-8774.416,-8817.533,-8812.826,-8760.588,-8826.821,-8863.13,-8749.423,-8774.798,-8842.273,-8753.267,-8723.927,-8658.357,-8632.822,-8721.128,-8695.92,-8659.877,-8622.448,-8673.501,-8837.444,-8935.198,-8941.281,-8735.457,-8636.956,-8763.5,-8762.507,-8774.907,-8761.595,-8645.156,-8593.949,-8557.264,-8568.143,-8580.593,-8557.077,-8619.413,-8664.278,-8690.286,-8829.214,-8902.079,-8808.904,-8734.89,-8710.46,-8638.42,-8563.1455,-8573.783,-8612.838,-8606.067,-8622.752,-8665.998,-8598.065,-8564.454,-8733.922,-8801.196,-8705.891,-8621.533,-8538.404,-8534.462,-8472.96,-8337.288,-8354.342,-8420.489,-8484.77,-8619.103,-8743.839,-8803.539,-8831.903,-8778.763,-8627.594,-8540.415,-8532.799,-8540.564,-8580.705,-8621.845,-8574.165,-8435.42,-8429.404,-8588.636,-8670.317,-8627.219,-8524.629,-8424.115,-8422.513,-8469.147,-8487.891,-8541.789,-8645.235,-8702.402,-8681.083,-8699.022,-8731.084,-8654.105,-8596.878,-8631.243,-8605.748,-8468.234,-8482.023,-8674.553,-8629.905,-8566.137,-8753.362,-8745.82,-8520.306,-8399.443,-8438.268,-8522.542,-8522.736,-8501.768,-8524.604,-8602.649,-8666.157,-8588.959,-8453.132,-8400.176,-8411.239,-8390.183,-8492.082,-8696.867,-8610.121,-8502.217,-8686.844,-8739.506,-8595.072,-8541.501,-8541.214,-8530.234,-8600.654,-8597.631,-8431.229,-8377.747,-8335.06,-8223.128,-8214.135,-8232.848,-8366.047,-8615.805,-8820.831,-8829.436,-8582.871,-8409.452,-8421.245,-8448.271,-8407.551,-8432.688,-8607.242,-8663.698,-8585.238,-8478.452,-8452.387,-8524.178,-8467.631,-8431.241,-8449.674,-8407.391,-8395.341,-8354.724,-8349.2705,-8434.414,-8551.135,-8667.38,-8702.556,-8623.818,-8432.059,-8270.476,-8211.045,-8217.862,-8362.383,-8501.16,-8580.316,-8662.315,-8569.374,-8500.749,-8603.024,-8598.357,-8529.644,-8503.782,-8504.05,-8412.826,-8236.673,-8236.392,-8317.648,-8393.9795,-8446.965,-8411.785,-8456.101,-8494.98,-8420.327,-8365.709,-8406.9,-8454.064,-8437.048,-8470.039,-8483.294,-8415.201,-8344.302,-8309.652,-8312.05,-8246.426,-8208.375,-8276.085,-8337.236,-8419.734,-8595.704,-8769.508,-8702.252,-8433.623,-8261.301,-8242.044,-8240.03,-8235.247,-8298.231,-8408.261,-8488.389,-8518.57,-8550.296,-8536.634,-8381.326,-8281.34,-8341.605,-8300.767,-8198.082,-8253.519,-8405.109,-8505.073,-8417.93,-8302.045,-8355.314,-8343.56,-8245.386,-8250.531,-8230.287,-8226.465,-8392.512,-8530.024,-8478.607,-8331.83,-8254.061,-8255.009,-8267.365,-8259.013,-8172.688,-8146.67,-8180.351,-8182.922,-8278.04,-8355.531,-8320.06,-8289.17,-8406.473,-8578.68,-8546.874,-8407.203,-8275.077,-8235.7295,-8274.396,-8300.44,-8389.902,-8308.36,-8138.6978,-8180.1597,-8222.685,-8192.483,-8134.7427,-8135.0054,-8183.9727,-8129.6567,-8241.552,-8486.904,-8495.929,-8393.329,-8329.063,-8316.6,-8320.741,-8254.834,-8161.0156,-8081.66,-8113.027,-8177.513,-8116.971,-8129.0684,-8218.096,-8197.309,-8189.3774,-8216.582,-8216.307,-8235.769,-8248.661,-8300.793,-8287.72,-8164.529,-8145.431,-8145.3516,-8140.513,-8214.102,-8311.027,-8460.768,-8542.294,-8420.49,-8208.785,-8145.1616,-8130.7603,-7982.8403,-7932.1836,-7973.69,-8072.0537,-8222.002,-8219.635,-8144.6675,-8020.0786,-7991.8477,-8184.6426,-8284.661,-8199.35,-8072.494,-8052.259,-8099.863,-8076.362,-8066.444,-8147.925,-8234.412,-8212.394,-8166.397,-8199.724,-8267.866,-8277.472,-8124.3906,-7976.525,-8029.2656,-8047.1655,-7997.526,-8108.295,-8192.304,-8183.496,-8163.137,-8067.239,-7999.162,-7974.2944,-8003.529,-8041.2217,-8019.4985,-8037.06,-8099.6045,-8207.707,-8160.3438,-7995.375,-8007.716,-8005.393,-8048.6807,-8264.323,-8321.1045,-8196.126,-8049.032,-7969.3594,-7987.353,-7946.797,-7893.8037,-8036.6274,-8231.471,-8173.8223,-7965.5737,-7871.085,-7946.4106,-8060.7393,-8050.707,-8054.339,-8104.1196,-8121.043,-8122.442,-7980.8237,-7890.3057,-7940.9365,-7919.8105,-7915.375,-8018.9224,-8214.629,-8261.738,-7984.8623,-7793.266,-7883.56,-7922.4688,-7883.0483,-7923.796,-7919.43,-7870.0537,-7905.091,-8017.533,-8119.9336,-8096.819,-7987.3403,-7918.4204,-7896.552,-7887.348,-7882.501,-7861.277,-7886.044,-7966.1274,-7994.198,-8063.9146,-8138.0215,-8086.965,-8094.3154,-8059.962,-7891.077,-7838.3477,-7796.546,-7759.076,-7875.913,-7932.3755,-7858.599,-7760.728,-7756.3364,-7884.918,-8035.07,-8181.532,-8187.5776,-8068.4336,-7965.548,-7836.507,-7867.9473,-7962.175,-7816.053,-7726.27,-7886.4307,-8008.7695,-7933.9336,-7806.613,-7760.553,-7778.683,-7802.32,-7799.636,-7805.9023,-7787.1704,-7729.8564,-7739.4023,-7772.743,-7768.869,-7787.679,-7818.1724,-7831.947,-7830.547,-7817.8135,-7832.115,-7879.527,-7928.173,-7934.706,-7889.291,-7867.3223,-7892.235,-7910.499,-7903.1147,-7870.3135,-7814.881,-7772.943,-7800.451,-7849.523,-7829.6694,-7780.3843,-7742.3857,-7745.2207,-7818.2173,-7929.6465,-8065.09,-8068.071,-7927.2734,-7817.5,-7680.315,-7654.456,-7724.931,-7662.4585,-7648.6763,-7663.8843,-7650.4346,-7682.0938,-7698.0957,-7721.7104,-7718.6436,-7746.8965,-7793.268,-7771.53,-7755.522,-7743.425,-7748.971,-7748.132,-7743.316,-7757.952,-7725.5195,-7696.512,-7700.691,-7714.482,-7729.717,-7714.063,-7688.7183,-7683.288,-7686.388,-7679.3657,-7674.255,-7685.262,-7693.7183,-7686.234,-7675.0273,-7665.425,-7642.2456,-7643.267,-7685.01,-7689.47,-7664.3174,-7665.127,-7655.45,-7633.017,-7622.1616,-7602.6934,-7585.4663,-7574.2886,-7566.4365,-7572.459,-7587.931,-7645.4575,-7711.002,-7692.2295,-7622.473,-7582.5356,-7570.4204,-7566.4497,-7589.2954,-7593.2573,-7552.8354,-7546.093,-7546.4727,-7527.923,-7548.7837,-7575.0415,-7567.6167,-7540.663,-7533.744,-7555.802,-7558.101,-7561.877,-7581.7607,-7581.7983,-7587.756,-7612.342,-7628.032,-7633.5264,-7628.5835,-7629.975,-7630.611,-7608.2827,-7614.1025,-7623.0884,-7596.5093,-7592.2246,-7602.0703,-7600.856,-7600.0513,-7616.26,-7632.203,-7630.08,-7637.2183,-7635.7456,-7646.75,-7676.2183,-7679.357,-7682.8623,-7693.5757,-7723.9863,-7772.1787,-7788.4917,-7779.0063,-7763.7744,-7756.733,-7765.2124,-7774.996,-7790.26,-7808.0205,-7807.181,-7810.444,-7826.087,-7833.2837,-7845.253,-7871.806,-7903.457,-7912.755,-7927.3345,-7957.536,-7964.683,-8004.5674,-8059.3667,-8062.722,-8067.969,-8107.029,-8143.324,-8157.733,-8174.446,-8194.655,-8207.866,-8228.783,-8248.789,-8266.2705,-8301.598,-8341.072,-8363.562,-8375.645,-8386.106,-8414.902,-8455.673,-8475.739,-8485.093,-8502.304,-8529.738,-8559.8125,-8592.453,-8634.5,-8657.995,-8663.102,-8685.042,-8714.076,-8745.358,-8771.352,-8768.013,-8768.087,-8775.552,-8775.977,-8803.732,-8840.935,-8849.893,-8851.135,-8876.224,-8909.416,-8921.376,-8923.504,-8935.944,-8955.628,-8958.555,-8946.746,-8944.757,-8940.105,-8918.783,-8896.701,-8875.625,-8857.884,-8853.02,-8840.023,-8831.21,-8853.063,-8861.032,-8844.424,-8855.757,-8878.02,-8883.233,-8883.647,-8863.321,-8851.405,-8859.448,-8849.101,-8834.0205,-8821.42,-8822.105,-8823.688,-8805.969,-8797.5625,-8791.85,-8789.057,-8794.997,-8796.2,-8789.327,-8779.678,-8797.718,-8816.748,-8805.7,-8812.736,-8836.627,-8839.604,-8833.23,-8836.426,-8828.811,-8794.768,-8775.28,-8769.274,-8768.178,-8788.731,-8785.638,-8766.012,-8750.01,-8741.878,-8742.657,-8710.934,-8701.372,-8711.27,-8701.482,-8711.68,-8707.951,-8705.591,-8720.081,-8715.939,-8703.819,-8693.31,-8701.471,-8706.792,-8711.2705,-8724.405,-8720.777,-8726.745,-8727.265,-8717.2295,-8717.538,-8712.568,-8719.464,-8730.513,-8731.98,-8733.184,-8735.87,-8741.767,-8744.893,-8751.746,-8758.648,-8761.352,-8758.59,-8758.749,-8776.852,-8783.888,-8779.85,-8778.828,-8762.158,-8748.114,-8758.074,-8771.424,-8767.593,-8764.539,-8773.19,-8760.177,-8734.047,-8739.038,-8756.586,-8759.422,-8761.797,-8761.755,-8754.577,-8754.291,-8756.682,-8753.042,-8750.962,-8747.377,-8738.818,-8732.041,-8724.838,-8725.018,-8734.021,-8738.661,-8744.037,-8748.286,-8744.565,-8737.573,-8735.63,-8747.939,-8764.114,-8763.238,-8739.839,-8724.225,-8735.318,-8750.278,-8754.942,-8748.082,-8755.295,-8763.848,-8743.454,-8727.471,-8707.947,-8695.524,-8702.398,-8694.091,-8705.92,-8737.813,-8764.157,-8784.243,-8785.779,-8804.243,-8862.461,-8929.6045,-8952.808,-8925.091,-8909.129,-8942.389,-8984.349,-8958.245,-8873.755,-8795.109,-8740.61,-8726.803,-8743.853,-8777.359,-8828.437,-8824.811,-8784.993,-8794.091,-8786.523,-8728.663,-8659.137,-8623.912,-8654.968,-8678.3955,-8680.814,-8724.822,-8820.117,-8897.849,-8900.05,-8876.763,-8822.131,-8755.388,-8754.904,-8763.765,-8747.269,-8749.719,-8790.663,-8832.819,-8819.293,-8802.394,-8822.74,-8796.804,-8748.747,-8775.461,-8768.413,-8652.221,-8565.485,-8601.511,-8700.437,-8781.939,-8856.5,-8868.28,-8800.7705,-8769.498,-8743.867,-8709.792,-8715.575,-8705.762,-8681.863,-8672.196,-8663.426,-8685.361,-8709.456,-8698.951,-8759.879,-8906.553,-9058.529,-9078.474,-8876.719,-8762.037,-8832.8125,-8861.736,-8852.937,-8821.449,-8826.618,-8890.998,-8933.763,-8949.267,-8937.968,-8946.781,-8908.619,-8797.785,-8727.242,-8751.449,-8856.846,-8939.791,-9046.455,-9084.478,-8878.731,-8732.2,-8786.618,-8827.562,-8824.926,-8827.333,-8912.558,-9117.198,-9211.347,-9110.973,-9011.635,-8897.705,-8789.455,-8860.476,-8932.064,-8851.3,-8824.291,-8907.881,-8977.346,-8930.3125,-8823.409,-8817.223
-8828.5205,-8823.798,-8865.765,-8882.313,-8901.681,-8971.71,-9039.481,-9038.224,-9044.232,-9155.989,-9238.909,-9123.516,-8908.56,-8856.09,-8944.972,-9042.672,-9051.706,-8868.872,-8719.773,-8776.148,-8914.208,-8977.96,-8931.805,-8915.705,-8937.754,-8913.508,-8899.173,-9005.506,-9116.746,-9104.217,-9082.181,-9006.421,-8951.456,-8980.375,-8901.392,-8863.664,-8986.168,-9131.733,-9150.147,-9052.82,-9043.69,-9102.177,-9163.828,-9144.809,-8960.256,-8806.796,-8789.706,-8812.037,-8845.977,-8881.61,-8876.704,-8908.279,-8958.382,-8982.754,-9076.636,-9162.982,-9191.05,-9166.216,-9134.157,-9152.419,-9113.717,-9079.623,-9100.363,-9112.629,-9042.255,-8854.68,-8771.776,-8871.403,-8992.522,-9031.097,-9018.507,-9008.884,-9052.239,-9111.43,-8941.348,-8782.261,-8867.218,-8875.376,-8895.069,-8948.015,-8908.908,-8968.772,-9015.163,-9009.221,-9070.041,-9172.452,-9280.979,-9235.214,-9059.931,-8923.711,-8900.9795,-8973.015,-9075.28,-9165.293,-9062.723,-8883.442,-8879.381,-8885.327,-8881.292,-8956.03,-8967.977,-8925.2705,-8970.581,-9077.828,-9082.855,-8978.945,-8933.397,-8912.135,-8865.166,-8882.685,-8882.444,-8876.233,-8957.649,-9057.905,-9136.131,-9096.632,-8965.623,-8886.738,-8800.676,-8772.681,-8882.115,-8948.229,-8999.88,-9140.144,-9257.108,-9262.204,-9138.692,-9103.234,-9113.892,-8898.618,-8802.463,-8890.435,-8900.303,-8988.591,-9087.947,-9064.682,-8931.5205,-8832.604,-8898.696,-8910.201,-8915.161,-8929.581,-8874.734,-8950.978,-9026.004,-9039.205,-9048.469,-8997.316,-9003.282,-9046.949,-9079.733,-9071.358,-9027.06,-9078.959,-9230.725,-9309.826,-9151.445,-8984.241,-9006.793,-9040.332,-8985.831,-8821.242,-8683.688,-8731.081,-8841.01,-8885.339,-8881.507,-8927.389,-9002.0,-9090.692,-9234.397,-9269.448,-9180.155,-9113.843,-9052.833,-8965.356,-8905.904,-8838.438,-8758.389,-8854.138,-8982.315,-9037.937,-9215.28,-9261.475,-9056.279,-8868.171,-8818.385,-8854.762,-8850.894,-8869.111,-8858.603,-8802.134,-8968.91,-9236.515,-9347.091,-9262.891,-8999.565,-8806.752,-8779.776,-8772.695,-8867.781,-9002.67,-9019.288,-9037.9795,-9025.634,-8960.127,-8933.51,-8841.037,-8805.462,-8955.996,-8999.266,-8854.495,-8759.688,-8722.767,-8672.28,-8677.157,-8767.154,-8903.677,-8997.48,-9037.384,-9066.588,-9080.183,-9063.294,-8946.98,-8800.072,-8705.42,-8646.649,-8698.586,-8812.887,-8898.703,-8960.072,-8887.321,-8669.393,-8582.957,-8657.902,-8711.276,-8823.923,-8906.701,-8823.54,-8769.616,-8799.627,-8709.849,-8529.373,-8555.715,-8732.087,-8857.708,-8850.9,-8707.599,-8666.981,-8664.084,-8601.087,-8658.545,-8760.217,-8807.331,-8755.068,-8630.805,-8595.051,-8573.045,-8572.727,-8721.007,-8833.493,-8875.657,-8854.808,-8628.189,-8453.014,-8475.95,-8494.775,-8458.821,-8385.467,-8294.137,-8281.543,-8387.739,-8477.076,-8525.121,-8562.086,-8538.672,-8529.619,-8529.236,-8538.562,-8608.864,-8677.445,-8773.583,-8858.245,-8746.984,-8574.16,-8551.984,-8573.949,-8617.747,-8569.199,-8394.112,-8353.209,-8309.87,-8194.568,-8178.826,-8334.328,-8550.98,-8589.806,-8670.424,-8745.882,-8594.09,-8490.505,-8420.924,-8374.401,-8504.523,-8699.774,-8809.385,-8822.274,-8745.251,-8536.695,-8412.439,-8426.48,-8394.356,-8421.402,-8495.975,-8556.979,-8636.324,-8597.774,-8547.263,-8615.363,-8597.813,-8507.085,-8445.267,-8350.213,-8333.036,-8371.146,-8336.005,-8391.857,-8563.117,-8695.094,-8749.099,-8745.533,-8737.691,-8702.345,-8578.707,-8415.365,-8369.538,-8475.204,-8631.309,-8717.54,-8644.149,-8616.302,-8608.148,-8451.888,-8403.671,-8468.628,-8516.16,-8533.169,-8488.197,-8466.92,-8467.953,-8512.694,-8590.96,-8680.068,-8769.06,-8706.77,-8590.54,-8506.981,-8386.468,-8403.218,-8486.472,-8410.54,-8382.661,-8467.211,-8559.955,-8776.21,-8909.979,-8701.1,-8523.967,-8594.505,-8589.008,-8524.213,-8484.31,-8458.409,-8548.758,-8565.182,-8535.135,-8529.668,-8506.085,-8520.967,-8423.878,-8379.292,-8468.304,-8496.527,-8443.05,-8369.406,-8512.3955,-8732.371,-8742.828,-8625.299,-8525.745,-8568.02,-8700.463,-8766.249,-8659.055,-8495.15,-8446.298,-8439.002,-8463.3955,-8491.07,-8447.275,-8484.421,-8635.944,-8698.235,-8596.149,-8500.514,-8558.501,-8587.974,-8519.356,-8532.988,-8548.423,-8502.898,-8451.338,-8432.83,-8506.945,-8555.394,-8562.854,-8585.362,-8581.835,-8581.138,-8577.297,-8564.588,-8562.634,-8585.769,-8516.902,-8356.479,-8328.463,-8360.907,-8405.476,-8503.378,-8602.152,-8716.44,-8770.415,-8735.376,-8582.867,-8488.753,-8640.317,-8649.637,-8460.733,-8499.399,-8590.782,-8420.822,-8343.265,-8485.559,-8504.981,-8441.585,-8425.134,-8400.053,-8368.133,-8364.243,-8399.219,-8432.622,-8434.188,-8455.367,-8531.966,-8532.073,-8469.067,-8506.155,-8610.5205,-8729.941,-8790.877,-8764.382,-8702.743,-8569.738,-8485.024,-8530.698,-8519.176,-8400.953,-8359.531,-8455.082,-8517.464,-8489.234,-8446.479,-8415.153,-8409.218,-8391.819,-8396.044,-8436.831,-8462.648,-8557.484,-8670.702,-8622.521,-8472.182,-8446.226,-8526.557,-8456.365,-8322.753,-8395.737,-8539.208,-8554.13,-8540.661,-8562.627,-8593.433,-8654.845,-8635.78,-8530.947,-8580.497,-8660.512,-8497.116,-8330.969,-8451.376,-8689.72,-8582.381,-8202.004,-8201.654,-8457.786,-8553.737,-8558.318,-8504.678,-8523.924,-8582.932,-8595.452,-8670.136,-8666.046,-8533.23,-8437.527,-8388.041,-8339.611,-8388.464,-8450.624,-8404.755,-8454.756,-8679.835,-8863.885,-8735.734,-8488.338,-8439.641,-8462.845,-8515.186,-8508.077,-8430.4795,-8435.801,-8496.686,-8557.442,-8526.287,-8568.543,-8692.493,-8683.807,-8623.709,-8594.283,-8632.849,-8663.229,-8748.162,-8784.747,-8632.255,-8608.608,-8553.631,-8468.208,-8531.914,-8450.722,-8409.453,-8477.093,-8506.704,-8573.178,-8455.9795,-8275.796,-8332.419,-8500.183,-8680.777,-8668.761,-8431.596,-8330.502,-8378.97,-8488.814,-8677.37,-8757.441,-8767.813,-8778.125,-8647.147,-8557.985,-8608.939,-8627.9,-8707.088,-8763.636,-8691.088,-8730.8955,-8608.131,-8228.831,-8178.316,-8371.483,-8471.462,-8412.136,-8269.369,-8252.468,-8248.961,-8370.655,-8589.573,-8614.915,-8605.4,-8540.761,-8451.142,-8481.245,-8531.049,-8558.341,-8569.718,-8617.039,-8667.66,-8712.617,-8733.532,-8657.196,-8580.86,-8566.044,-8517.786,-8358.216,-8281.726,-8418.455,-8612.466,-8705.139,-8605.944,-8465.863,-8428.971,-8434.159,-8449.988,-8487.653,-8521.746,-8568.877,-8616.949,-8580.246,-8595.513,-8587.102,-8483.362,-8527.131,-8513.975,-8391.269,-8427.531,-8572.543,-8575.223,-8449.662,-8451.031,-8387.118,-8327.691,-8421.038,-8431.91,-8447.476,-8322.791,-8188.825,-8250.764,-8260.737,-8434.576,-8586.662,-8506.479,-8506.758,-8460.946,-8398.594,-8468.787,-8478.16,-8367.863,-8342.891,-8469.077,-8512.029,-8460.953,-8459.314,-8525.59,-8568.285,-8453.809,-8377.08,-8441.675,-8463.472,-8454.845,-8428.416,-8352.549,-8283.339,-8283.5,-8322.181,-8358.989,-8459.708,-8492.1455,-8458.822,-8470.04,-8397.613,-8343.566,-8351.196,-8387.104,-8426.196,-8357.7295,-8369.682,-8402.286,-8335.917,-8341.305,-8332.612,-8298.879,-8321.707,-8305.955,-8270.83,-8280.358,-8306.287,-8338.038,-8361.319,-8369.547,-8390.756,-8436.171,-8480.252,-8442.105,-8343.317,-8297.946,-8286.257,-8285.269,-8382.085,-8526.674,-8512.588,-8330.11,-8226.429,-8236.721,-8157.7627,-8137.6187,-8250.868,-8277.675,-8326.691,-8364.851,-8308.003,-8309.435,-8305.609,-8283.398,-8261.547,-8228.479,-8206.101,-8188.85,-8216.692,-8232.583,-8256.061,-8303.564,-8333.954,-8358.106,-8339.757,-8381.769,-8444.252,-8407.647,-8397.433,-8419.8125,-8421.761,-8420.443,-8409.543,-8368.259,-8307.623,-8291.896,-8298.028,-8301.806,-8290.699,-8262.769,-8290.149,-8355.023,-8403.8125,-8422.131,-8420.247,-8419.375,-8421.212,-8432.622,-8454.285,-8475.155,-8445.085,-8402.582,-8428.407,-8438.936,-8392.856,-8368.873,-8370.639,-8359.113,-8349.229,-8355.546,-8373.299,-8394.21,-8403.643,-8419.242,-8438.225,-8448.216,-8463.458,-8467.189,-8461.561,-8457.084,-8440.258,-8430.062,-8446.322,-8476.816,-8497.064,-8499.667,-8492.449,-8475.714,-8471.297,-8492.597,-8518.086,-8520.19,-8510.995,-8550.697,-8591.152,-8575.966,-8577.053,-8604.07,-8630.672,-8643.667,-8634.442,-8636.951,-8638.139,-8625.655,-8630.108,-8647.16,-8658.263,-8666.382,-8652.934,-8629.64,-8643.285,-8676.103,-8703.811,-8710.193,-8719.485,-8747.557,-8746.251,-8754.249,-8772.088,-8774.001,-8787.459,-8782.476,-8787.44,-8802.301,-8795.969,-8813.945,-8832.023,-8834.023,-8851.701,-8876.859,-8895.707,-8914.771,-8937.953,-8945.785,-8957.539,-8986.073,-8991.346,-8980.3,-8995.564,-9019.977,-9010.589,-9023.028,-9090.818,-9127.352,-9132.326,-9154.054,-9166.551,-9168.598,-9188.545,-9246.48,-9312.97,-9310.647,-9270.141,-9274.356,-9268.064,-9233.02,-9227.906,-9220.47,-9238.477,-9280.082,-9275.734,-9277.032,-9288.341,-9294.941,-9305.638,-9300.569,-9304.98,-9305.143,-9305.628,-9323.837,-9337.533,-9351.756,-9358.513,-9361.356,-9368.04,-9378.052,-9390.379,-9389.638,-9384.379,-9381.64,-9390.712,-9425.24,-9476.8,-9513.036,-9506.317,-9504.271,-9525.662,-9509.463,-9481.0205,-9500.151,-9531.22,-9524.896,-9480.795,-9428.777,-9416.176,-9450.627,-9462.982,-9454.237,-9487.555,-9515.213,-9502.322,-9464.175,-9422.664,-9415.602,-9437.27,-9507.606,-9533.943,-9466.998,-9511.084,-9651.186,-9712.346,-9655.855,-9508.175,-9430.755,-9449.794,-9434.254,-9455.492,-9525.829,-9552.722,-9563.2295,-9550.604,-9527.12,-9523.968,-9491.456,-9421.923,-9374.412,-9356.945,-9343.841,-9385.736,-9477.004,-9590.925,-9714.964,-9742.174,-9678.954,-9630.689,-9618.93,-9582.187,-9509.079,-9462.598,-9451.945,-9529.635,-9675.187,-9670.4795,-9500.193,-9384.498,-9351.808,-9371.271,-9408.51,-9382.281,-9434.786,-9475.944,-9366.221,-9333.672,-9376.358,-9426.73,-9447.469,-9441.2295,-9572.053,-9669.611,-9604.325,-9521.962,-9506.512,-9564.094,-9548.759,-9485.872,-9509.415,-9535.045,-9501.294,-9381.296,-9271.975,-9322.532,-9372.154,-9348.341,-9412.858,-9490.418,-9470.674,-9440.52,-9439.698,-9439.159,-9413.833,-9402.355,-9414.185,-9372.106,-9373.993,-9461.578,-9457.627,-9420.599,-9516.972,-9627.67,-9557.89,-9385.636,-9335.572,-9358.925,-9345.789,-9370.348,-9369.161,-9343.511,-9383.925,-9423.7,-9465.909,-9478.728,-9512.877,-9691.607,-9802.549,-9659.682,-9367.738,-9134.5205,-9136.56,-9318.279,-9455.677,-9458.717,-9402.796,-9381.58,-9404.25,-9383.398,-9322.713,-9306.193,-9304.799,-9303.096,-9379.091,-9454.6875,-9402.298,-9334.965,-9368.111,-9447.033,-9476.595,-9417.067,-9349.773,-9359.995,-9419.612,-9459.283,-9459.275,-9479.207,-9502.027,-9419.613,-9334.044,-9306.489,-9226.074,-9291.6875,-9560.396,-9667.287,-9558.401,-9448.956,-9405.874,-9403.206,-9400.864,-9431.414,-9557.6455,-9628.394,-9529.48,-9418.643,-9358.746,-9360.272,-9394.545,-9374.915,-9368.304,-9348.435,-9315.049,-9345.93,-9412.696,-9517.135,-9581.622,-9486.465,-9313.046,-9289.517,-9369.977,-9365.657,-9360.142,-9455.179,-9546.132,-9508.921,-9588.944,-9895.709,-10071.168,-9856.593,-9399.152,-9252.772,-9333.56,-9267.2,-9285.552,-9361.151,-9422.509,-9436.512,-9381.692,-9451.245,-9526.332,-9604.268,-9660.752,-9537.681,-9442.554,-9463.342,-9482.577,-9457.722,-9491.896,-9660.735,-9780.933,-9664.579,-9408.748,-9292.353,-9318.3,-9382.95,-9422.446,-9334.575,-9353.833,-9459.826,-9496.092,-9584.063,-9463.051,-9344.973,-9513.216,-9527.838,-9487.407,-9496.189,-9487.06,-9575.565,-9527.708,-9453.895,-9540.487,-9540.033,-9351.666,-9214.211,-9329.474,-9441.871,-9426.852,-9426.965,-9422.812,-9435.543,-9490.987,-9556.231,-9576.288,-9547.15,-9514.742,-9547.419,-9716.936,-9787.468,-9695.649,-9618.922,-9429.448,-9299.237,-9419.918,-9535.554,-9500.436,-9379.184,-9386.548,-9385.054,-9249.965,-9283.852,-9365.678,-9328.505,-9260.859,-9219.2295,-9220.142,-9223.81,-9348.283,-9444.583,-9385.401,-9371.302,-9313.342,-9252.125,-9284.773,-9255.687,-9227.557,-9213.03,-9162.877,-9154.856,-9166.147,-9103.441,-8964.477,-8968.004,-9093.849,-9145.421,-9150.516,-9096.117,-9049.161,-9045.146,-9062.161,-9018.182,-8851.138,-8830.728,-8953.778,-9081.029,-9124.11,-9004.743,-8962.099,-8988.201,-8978.889,-8993.899,-9044.434,-9090.41,-9016.452,-8924.837,-8857.535,-8828.191,-8935.204,-8947.358,-8853.033,-8918.657,-9105.466,-9142.304,-8978.477,-8919.594,-9011.74,-9060.043,-9037.969,-9051.198,-9133.584,-9193.076,-9195.336,-8970.535,-8683.996,-8683.811,-8711.781
-8683.208,-8795.664,-9002.747,-9035.425,-8845.903,-8781.7295,-8849.741,-8947.184,-9021.749,-8973.336,-9018.821,-9193.768,-9270.703,-9165.65,-8938.746,-8752.713,-8726.126,-8784.3955,-8796.926,-8791.524,-8810.565,-8828.712,-8815.876,-8777.69,-8776.52,-8823.501,-8929.565,-9053.593,-9093.037,-9119.153,-9115.897,-9021.578,-8994.162,-8925.2295,-8754.8955,-8688.802,-8715.74,-8827.71,-8866.693,-8811.305,-8867.973,-8878.262,-8881.473,-8983.777,-9007.052,-8957.195,-8886.584,-8786.144,-8739.461,-8741.018,-8745.908,-8881.069,-9027.934,-8985.191,-8888.3955,-8828.801,-8852.047,-8975.314,-8993.168,-8841.741,-8833.008,-8995.771,-9056.118,-9035.391,-8960.301,-8845.56,-8737.079,-8663.816,-8676.628,-8708.344,-8798.062,-8836.646,-8808.693,-8897.138,-8961.331,-9029.304,-9077.97,-8992.649,-9015.474,-9143.937,-9141.683,-9000.255,-8890.089,-8815.883,-8697.55,-8639.899,-8658.573,-8721.309,-8758.162,-8692.495,-8721.14,-8887.832,-8934.455,-8828.805,-8812.197,-8907.039,-8959.675,-9029.828,-9029.282,-8861.508,-8733.096,-8782.553,-9078.446,-9257.876,-9031.927,-8895.011,-8901.657,-8828.158,-8844.773,-8783.213,-8671.823,-8827.2,-9002.221,-9002.421,-8930.577,-8795.13,-8737.658,-8763.847,-8761.943,-8850.683,-8955.415,-8955.997,-8983.248,-9094.023,-9221.523,-9207.14,-9077.78,-9034.966,-8933.959,-8742.264,-8760.218,-8904.438,-8908.694,-8784.017,-8689.334,-8755.308,-8956.615,-9091.102,-9035.219,-9103.54,-9262.53,-9057.181,-8772.319,-8704.529,-8755.224,-8808.193,-8705.849,-8648.7,-8725.994,-8894.318,-9083.449,-9100.16,-9093.93,-9068.696,-8948.353,-8819.826,-8693.55,-8644.253,-8622.818,-8597.645,-8625.134,-8782.806,-9034.836,-9039.476,-8941.043,-9075.81,-9121.473,-9010.984,-8965.086,-8921.619,-8924.336,-8984.224,-9072.821,-9014.552,-8781.79,-8768.725,-8812.852,-8775.724,-8775.364,-8691.021,-8665.572,-8723.863,-8813.821,-8882.177,-8851.164,-8817.861,-8793.246,-8811.255,-8770.066,-8721.519,-8862.683,-9056.057,-9188.966,-9182.001,-9078.431,-9053.885,-9074.731,-9035.231,-8888.122,-8758.249,-8813.438,-8909.899,-8956.236,-9004.162,-8911.918,-8787.534,-8801.03,-8793.542,-8739.376,-8752.511,-8878.95,-9028.549,-9045.563,-8999.001,-9146.995,-9357.585,-9246.736,-9013.423,-8941.95,-8893.27,-8787.039,-8717.815,-8740.841,-8777.632,-8791.369,-8748.137,-8707.273,-8816.927,-8861.568,-8796.289,-8866.052,-8895.722,-8821.287,-8828.398,-8863.543,-8873.804,-8870.6,-8952.568,-9118.845,-9183.961,-9092.384,-8942.922,-8942.962,-8996.719,-9046.492,-9178.652,-9054.816,-8805.641,-8736.102,-8761.867,-8943.588,-8955.646,-8736.319,-8744.536,-8795.833,-8741.995,-8801.116,-8888.848,-8939.124,-9006.87,-8972.368,-8819.891,-8767.488,-8824.803,-8895.793,-8990.218,-9077.786,-9133.16,-9081.817,-8986.036,-8906.78,-8785.741,-8756.523,-8782.215,-8779.97,-8813.969,-8837.057,-8849.482,-8860.954,-8941.2295,-9061.893,-9006.136,-8889.7705,-8937.979,-8999.52,-8960.128,-8914.226,-8870.972,-8914.439,-8964.271,-8920.012,-8937.762,-8827.163,-8679.088,-8781.382,-8845.881,-8840.11,-8891.381,-8920.574,-8905.42,-8886.63,-8924.512,-8903.781,-8860.4375,-8885.27,-8870.01,-8855.107,-8882.091,-8939.927,-8987.509,-8981.744,-8974.986,-8989.503,-9067.852,-9106.878,-9006.174,-8945.896,-8981.443,-8959.615,-8871.024,-8846.516,-8864.322,-8854.753,-8874.415,-8931.137,-8965.316,-8934.207,-8920.824,-8978.683,-9012.448,-9019.832,-9013.975,-9008.565,-9026.363,-8996.219,-8922.547,-8868.551,-8875.271,-8909.1,-8897.8,-8899.415,-8924.836,-8915.673,-8910.711,-8910.831,-8909.108,-8928.927,-8944.967,-8952.768,-8934.083,-8903.143,-8907.987,-8918.211,-8914.131,-8903.219,-8899.016,-8904.257,-8912.4375,-8937.065,-8946.0,-8937.915,-8943.522,-8926.83,-8899.842,-8919.511,-8938.124,-8918.823,-8911.92,-8914.594,-8917.112,-8908.883,-8883.949,-8894.501,-8920.917,-8925.369,-8911.084,-8904.7,-8917.557,-8908.6455,-8909.07,-8924.502,-8927.279,-8932.966,-8928.738,-8928.023,-8929.148,-8930.945,-8938.666,-8924.875,-8908.0625,-8899.32,-8894.654,-8895.698,-8895.889,-8899.463,-8900.99,-8914.913,-8939.519,-8932.235,-8926.539,-8964.4795,-8985.495,-8974.032,-8974.306,-8995.853,-9016.172,-8994.477,-8961.821,-8953.698,-8959.366,-8968.505,-8963.715,-8980.857,-9005.77,-9010.087,-9011.812,-8985.716,-8976.3,-9007.917,-9043.09,-9070.82,-9068.982,-9071.816,-9085.754,-9087.764,-9105.567,-9111.668,-9097.931,-9105.893,-9113.025,-9103.895,-9107.266,-9114.469,-9122.85,-9139.748,-9141.211,-9140.933,-9148.843,-9157.132,-9171.564,-9175.38,-9179.822,-9191.821,-9198.92,-9208.917,-9213.763,-9213.216,-9216.943,-9231.495,-9245.934,-9236.974,-9226.035,-9245.948,-9270.615,-9264.226,-9261.416,-9276.132,-9289.169,-9308.95,-9312.382,-9313.235,-9331.149,-9330.256,-9338.305,-9362.334,-9363.964,-9368.08,-9380.183,-9389.056,-9400.985,-9402.476,-9405.466,-9414.061,-9415.943,-9429.1875,-9448.038,-9458.704,-9466.118,-9466.245,-9481.031,-9510.965,-9509.354,-9501.213,-9516.403,-9519.403,-9525.724,-9541.772,-9540.141,-9532.276,-9523.947,-9531.044,-9545.347,-9549.634,-9562.724,-9566.039,-9563.1875,-9567.423,-9567.838,-9573.401,-9573.422,-9576.291,-9597.41,-9616.894,-9613.86,-9603.219,-9624.133,-9650.992,-9652.544,-9667.6875,-9697.422,-9685.867,-9654.66,-9655.369,-9661.823,-9672.415,-9680.684,-9668.215,-9678.125,-9694.418,-9701.247,-9721.019,-9726.264,-9727.277,-9739.477,-9741.442,-9739.768,-9740.194,-9738.041,-9735.277,-9733.54,-9733.692,-9737.423,-9739.261,-9746.826,-9767.791,-9765.491,-9755.785,-9779.006,-9791.811,-9794.954,-9804.902,-9791.384,-9795.761,-9841.859,-9887.829,-9916.049,-9906.581,-9857.573,-9821.926,-9830.854,-9845.771,-9857.892,-9871.157,-9859.497,-9869.23,-9891.398,-9881.823,-9879.654,-9874.161,-9866.54,-9875.749,-9883.554,-9881.168,-9873.679,-9878.563,-9871.266,-9875.092,-9910.015,-9917.4375,-9915.4795,-9930.63,-9942.563,-9950.492,-9961.82,-9962.944,-9949.844,-9945.743,-9940.333,-9941.987,-9953.915,-9938.962,-9918.066,-9912.255,-9913.633,-9932.48,-9935.986,-9915.204,-9918.121,-9923.655,-9924.068,-9922.956,-9899.317,-9901.732,-9912.374,-9896.602,-9898.519,-9918.285,-9939.519,-9955.56,-9955.061,-9941.678,-9935.846,-9931.792,-9932.115,-9968.032,-9992.766,-9967.887,-9942.515,-9943.021,-9955.77,-9972.985,-9976.525,-9966.416,-9971.467,-9974.668,-9962.198,-9957.492,-9962.795,-9963.69,-9950.717,-9937.951,-9942.93,-9957.484,-9964.61,-9965.201,-9966.605,-9963.758,-9961.491,-9972.033,-9981.4795,-9979.56,-9986.294,-9986.295,-9968.986,-9966.093,-9968.924,-9984.983,-10032.928,-10047.989,-10009.898,-9999.587,-10019.986,-10018.15,-10011.261,-10012.867,-10019.564,-10032.988,-10052.319,-10082.038,-10093.233,-10068.187,-10054.059,-10071.584,-10048.287,-10006.464,-10013.156,-10008.286,-10001.157,-9994.88,-9974.179,-10000.871,-10034.508,-10037.516,-10025.811,-10014.082,-10011.19,-10007.144,-10021.43,-10027.764,-10023.601,-10048.528,-10073.672,-10068.794,-10048.998,-10033.535,-10023.927,-10050.611,-10107.554,-10133.719,-10146.631,-10163.426,-10135.616,-10096.994,-10120.482,-10142.676,-10099.693,-10050.491,-10036.819,-10038.91,-10029.9795,-10037.547,-10070.439,-10080.459,-10087.259,-10095.676,-10106.525,-10138.13,-10144.316,-10145.37,-10139.774,-10090.668,-10063.528,-10107.688,-10204.378,-10253.539,-10207.005,-10161.298,-10134.198,-10085.929,-10084.796,-10155.949,-10206.222,-10213.886,-10215.008,-10209.342,-10203.137,-10189.828,-10147.142,-10094.932,-10039.841,-9980.718,-10003.808,-10070.192,-10091.459,-10114.364,-10111.293,-10101.056,-10084.288,-10045.861,-10072.194,-10082.11,-10063.513,-10095.8,-10167.372,-10275.299,-10327.445,-10316.25,-10350.03,-10366.2295,-10293.174,-10187.894,-10057.963,-10042.427,-10169.905,-10192.036,-10164.398,-10121.165,-10039.195,-10039.082,-10022.979,-10002.737,-10029.394,-10088.554,-10184.593,-10239.23,-10257.195,-10187.3545,-10128.075,-10187.254,-10188.564,-10140.243,-10116.665,-10089.627,-10087.654,-10115.722,-10131.643,-10148.218,-10211.293,-10234.76,-10128.032,-9995.028,-10041.7,-10219.7705,-10246.75,-10139.495,-10075.37,-10047.768,-10063.924,-10131.886,-10163.036,-10150.9,-10166.102,-10192.901,-10173.427,-10114.794,-10073.632,-10040.872,-10016.998,-10100.141,-10233.012,-10318.771,-10395.478,-10333.961,-10160.764,-10139.333,-10085.742,-9904.292,-9879.171,-9933.2705,-9978.104,-10063.721,-10127.272,-10166.001,-10117.348,-10094.417,-10179.543,-10156.731,-10079.948,-10064.54,-10090.993,-10172.598,-10232.344,-10201.97,-10030.179,-9852.839,-9836.773,-9885.816,-9977.801,-10074.751,-10103.141,-10118.978,-10129.735,-10115.572,-10099.39,-10151.997,-10225.041,-10199.814,-10156.1455,-10152.275,-10042.157,-9881.08,-9955.514,-10137.772,-10123.503,-10017.218,-10003.886,-10022.136,-9971.196,-9950.095,-9956.88,-9883.982,-9882.715,-9974.684,-9982.675,-9978.323,-10052.714,-10157.07,-10254.679,-10226.716,-10105.833,-10078.453,-10050.325,-9878.895,-9736.833,-9788.565,-9868.258,-9907.628,-9985.919,-10050.018,-10150.25,-10247.97,-10206.039,-10037.118,-9883.799,-9902.11,-9951.778,-9927.646,-9899.564,-9862.855,-9894.748,-10021.09,-10174.721,-10231.141,-10101.4,-9962.53,-9919.875,-9907.385,-9947.784,-10041.743,-10102.299,-10135.429,-10183.177,-10105.614,-9883.661,-9770.832,-9851.205,-9945.931,-9961.809,-9994.646,-10049.913,-10025.842,-9953.791,-10004.753,-10110.2,-10059.467,-10018.984,-10040.884,-9971.932,-9864.314,-9789.056,-9846.74,-9974.982,-10036.169,-10055.196,-10082.394,-10136.943,-10119.49,-10056.461,-10067.701,-10122.302,-10137.42,-10079.793,-10013.903,-9957.031,-9890.393,-9859.601,-9899.807,-9960.514,-10003.27,-10052.083,-10082.941,-10082.636,-10014.504,-9933.3955,-9923.781,-9875.617,-9833.388,-9941.3955,-10140.583,-10227.337,-10140.463,-10060.209,-10014.243,-9985.15,-9955.483,-9859.594,-9911.424,-10125.209,-10184.843,-10090.696,-9977.683,-9859.277,-9865.32,-9999.505,-10052.908,-10032.155,-10024.651,-10017.237,-10003.027,-9957.33,-9931.331,-9929.725,-9898.67,-9955.118,-10090.392,-10127.245,-10132.213,-10198.669,-10251.158,-10277.884,-10215.425,-10071.937,-9980.3125,-9920.427,-9950.251,-10004.852,-9960.772,-9941.845,-9897.099,-9924.011,-10087.058,-10098.62,-9996.831,-9944.83,-9965.704,-10022.511,-10040.66,-10004.008,-9962.038,-10010.873,-10063.466,-10130.672,-10280.317,-10324.978,-10341.121,-10368.322,-10120.97,-9783.19,-9703.359,-9778.382,-9867.673,-9918.807,-9943.887,-9971.817,-9966.088,-9979.054,-9992.51,-10010.307,-10079.197,-10067.458,-10004.657,-10071.678,-10158.812,-10128.534,-10116.439,-10079.509,-9985.715,-10100.703,-10245.701,-10117.784,-9999.148,-10033.408,-10039.524,-10086.6875,-10234.324,-10263.118,-10092.221,-10003.908,-10081.644,-10066.486,-10005.934,-9981.262,-9939.371,-9991.411,-10087.959,-10147.795,-10099.201,-9907.891,-9827.07,-9940.008,-10094.439,-10232.028,-10287.624,-10213.953,-10160.608,-10161.583,-10090.804,-10016.034,-10003.028,-10038.736,-10104.726,-10149.401,-10157.995,-10140.55,-10124.859,-10097.13,-9982.619,-9862.187,-9956.682,-10117.0,-10132.518,-10123.27,-10125.205,-10158.845,-10143.238,-10043.983,-10009.737,-10015.633,-10088.351,-10138.976,-10065.1455,-10016.206,-10051.246,-10089.328,-10008.507,-9960.784,-10047.141,-10072.566,-10079.761,-10135.525,-10111.951,-10065.274,-10215.701,-10411.073,-10379.5,-10326.891,-10406.86,-10321.47,-10011.776,-9896.165,-9980.751,-10023.8545,-10120.491,-10182.765,-10096.692,-9979.141,-9962.1045,-10072.1,-10175.258,-10251.567,-10257.677,-10160.616,-10139.702,-10139.573,-10035.541,-10021.368,-10100.859,-10076.661,-10092.779,-10213.606,-10229.647,-10134.772,-9990.241,-9936.628,-10081.864,-10176.315,-10188.349,-10281.078,-10315.338,-10230.238,-10168.856,-10191.02,-10242.335,-10213.45,-10001.288,-9808.223,-9902.165,-10010.105,-10006.317,-10115.272,-10233.782,-10292.652,-10263.834,-10163.158,-10196.037,-10219.027,-10234.442,-10388.468,-10372.035,-10169.443,-10082.035,-10130.828,-10125.467,-10022.982,-9983.138,-10036.387,-10117.147,-10090.706,-10048.898,-10101.876,-10108.905,-10146.016,-10151.27,-10125.508,-10140.955,-10104.754,-10150.85,-10283.09,-10442.898,-10357.481,-10017.3125,-9914.479,-9921.18,-9935.365,-9980.629,-10013.81,-10177.07,-10229.634,-10235.965,-10320.709,-10282.017,-10265.479,-10238.049,-10129.534,-10163.56,-10315.608,-10299.869,-10121.007,-10022.824,-9963.7705,-9928.655,-10006.493,-10139.426,-10203.431,-10172.52,-10141.644,-10106.238,-10152.882,-10187.652,-10070.457,-10098.0205,-10202.794,-10136.689,-10056.253,-10035.442,-10031.435,-10084.806,-10233.271,-10301.942,-10191.388,-10186.272,-10245.589,-10126.882,-10009.151,-10006.93,-10054.368,-10081.261,-10105.003,-10182.929,-10177.259
-10091.826,-10031.496,-9981.1455,-10002.414,-10104.795,-10146.888,-10131.38,-10109.599,-10005.03,-9926.387,-9918.987,-9904.61,-9983.899,-10155.839,-10306.259,-10335.852,-10289.942,-10292.479,-10271.111,-10151.274,-10035.203,-10030.512,-10021.386,-10007.154,-10086.466,-10026.075,-9879.712,-9928.235,-10023.791,-9996.634,-9915.28,-9943.971,-10138.742,-10330.192,-10370.54,-10238.503,-10014.341,-9886.38,-9942.393,-10050.322,-10075.623,-10068.704,-10109.272,-10098.316,-10013.561,-10012.807,-10128.941,-10163.179,-10038.251,-10078.871,-10212.332,-10126.324,-10139.696,-10242.02,-10096.27,-9959.387,-10054.1045,-10125.898,-10055.706,-10035.309,-10044.261,-10053.51,-10144.574,-10286.243,-10460.631,-10481.863,-10368.533,-10414.269,-10493.172,-10369.534,-10174.076,-10028.461,-9909.805,-9993.084,-10223.522,-10274.723,-10295.541,-10323.998,-10188.235,-10135.35,-10187.702,-10183.7295,-10224.322,-10299.444,-10176.634,-10004.011,-10166.212,-10276.579,-10205.378,-10291.0625,-10283.089,-10234.311,-10230.515,-10166.414,-10179.231,-10230.708,-10348.3,-10328.793,-10137.507,-10178.5625,-10303.963,-10233.713,-10062.578,-10057.287,-10176.34,-10114.88,-9987.16,-9961.241,-10042.977,-10147.261,-10183.816,-10253.055,-10285.492,-10249.864,-10221.668,-10180.352,-10245.1455,-10326.106,-10232.508,-10192.842,-10227.343,-10140.124,-10070.474,-9979.153,-9909.675,-10028.983,-10133.609,-10175.081,-10156.044,-10148.441,-10232.035,-10249.257,-10202.244,-10099.4795,-10076.674,-10158.15,-10224.338,-10336.662,-10293.922,-10155.258,-10110.582,-10084.656,-10167.496,-10279.87,-10377.25,-10438.5205,-10335.599,-10247.13,-10202.232,-10145.596,-10207.093,-10333.421,-10346.8545,-10191.759,-10062.919,-10076.01,-10122.956,-10195.902,-10264.836,-10289.373,-10335.291,-10419.348,-10445.766,-10288.061,-10062.035,-9993.676,-10032.097,-10085.745,-10263.875,-10462.199,-10403.733,-10115.91,-9897.722,-10052.022,-10271.809,-10164.468,-10060.817,-10083.395,-10090.263,-10089.852,-10072.883,-10053.193,-10000.221,-10040.628,-10152.754,-10158.391,-10101.071,-9991.707,-9981.348,-10116.475,-10129.967,-10074.864,-10147.188,-10191.213,-10070.922,-9998.394,-10069.199,-10125.11,-10172.765,-10312.779,-10443.926,-10365.6875,-10136.494,-9947.688,-9835.723,-9833.615,-9881.812,-9888.185,-9935.491,-10014.729,-10052.964,-10065.666,-10068.703,-10096.945,-10140.778,-10140.74,-10145.172,-10190.858,-10157.388,-10076.735,-10086.946,-10063.398,-9949.923,-9914.339,-9968.636,-10018.352,-10051.355,-10073.638,-10087.564,-10027.808,-9853.754,-9824.799,-9987.837,-10044.229,-10087.665,-10215.866,-10337.656,-10348.783,-10032.719,-9815.212,-10045.631,-10185.281,-10033.089,-9859.785,-9786.568,-9796.441,-9849.34,-9913.317,-9932.703,-9926.865,-9927.806,-9971.307,-10034.858,-10020.365,-9968.926,-9976.172,-9987.035,-9877.385,-9803.399,-9909.27,-9991.192,-9921.557,-9785.302,-9724.995,-9749.915,-9810.258,-9926.563,-10073.632,-10191.9375,-10235.966,-10270.4375,-10246.049,-10061.051,-9832.752,-9660.247,-9608.119,-9630.253,-9578.149,-9549.965,-9705.054,-9853.725,-9864.702,-9880.731,-9856.734,-9809.159,-9800.5,-9776.158,-9808.172,-9838.732,-9816.405,-9791.671,-9773.969,-9791.662,-9799.418,-9803.945,-9799.954,-9744.979,-9715.813,-9756.257,-9820.249,-9898.8545,-10033.191,-10153.389,-10141.518,-10011.469,-9900.621,-9868.598,-9801.712,-9684.127,-9613.784,-9662.83,-9711.706,-9601.458,-9582.804,-9720.361,-9711.934,-9629.13,-9614.602,-9613.515,-9626.752,-9661.679,-9742.945,-9783.889,-9753.866,-9790.792,-9806.764,-9729.941,-9679.941,-9705.53,-9747.888,-9795.659,-9891.588,-9908.042,-9830.261,-9762.439,-9688.705,-9655.586,-9722.681,-9801.317,-9709.649,-9670.5205,-9821.009,-9777.927,-9627.365,-9622.482,-9733.57,-9786.794,-9640.513,-9611.543,-9672.713,-9663.979,-9735.708,-9744.733,-9719.762,-9697.919,-9652.513,-9703.019,-9738.691,-9731.156,-9687.681,-9651.525,-9601.374,-9480.151,-9525.608,-9596.327,-9590.13,-9651.595,-9651.896,-9673.462,-9700.248,-9692.307,-9744.612,-9740.909,-9713.18,-9669.792,-9613.65,-9603.542,-9610.232,-9659.691,-9678.483,-9661.188,-9644.167,-9624.738,-9647.645,-9651.382,-9635.824,-9653.032,-9670.281,-9665.458,-9661.355,-9655.949,-9651.607,-9673.088,-9671.318,-9654.709,-9648.608,-9629.066,-9620.573,-9622.916,-9633.884,-9638.36,-9632.977,-9641.294,-9640.799,-9646.441,-9659.333,-9660.861,-9670.523,-9668.017,-9658.979,-9665.269,-9663.311,-9661.483,-9660.897,-9654.012,-9658.5,-9655.391,-9657.321,-9682.446,-9684.659,-9675.054,-9681.793,-9685.298,-9687.122,-9692.123,-9697.689,-9699.542,-9695.804,-9702.288,-9705.813,-9688.787,-9684.89,-9691.856,-9685.384,-9683.434,-9680.601,-9681.827,-9688.481,-9687.161,-9698.932,-9713.703,-9726.813,-9738.083,-9737.907,-9737.769,-9740.698,-9762.792,-9773.269,-9763.595,-9772.281,-9764.758,-9752.601,-9759.499,-9753.111,-9746.534,-9747.172,-9746.324,-9755.482,-9772.25,-9781.164,-9789.015,-9805.455,-9820.662,-9835.734,-9839.158,-9841.883,-9864.8955,-9871.03,-9865.787,-9879.596,-9901.223,-9916.246,-9916.52,-9922.068,-9923.507,-9919.083,-9941.116,-9957.737,-9968.318,-9993.317,-10013.2705,-10026.98,-10032.462,-10051.91,-10079.086,-10091.989,-10110.931,-10116.007,-10111.981,-10121.622,-10122.032,-10113.141,-10107.239,-10108.943,-10115.652,-10124.409,-10136.488,-10154.419,-10174.857,-10184.898,-10199.216,-10217.449,-10232.588,-10249.017,-10249.005,-10251.245,-10264.391,-10268.735,-10264.392,-10254.494,-10258.244,-10269.329,-10275.448,-10288.491,-10298.058,-10296.495,-10296.377,-10309.115,-10317.803,-10316.363,-10325.396,-10330.774,-10328.583,-10333.53,-10337.287,-10341.498,-10354.462,-10369.591,-10371.061,-10366.412,-10373.56,-10378.12,-10374.227,-10372.879,-10375.035,-10379.959,-10390.181,-10406.509,-10416.86,-10423.08,-10433.513,-10443.281,-10446.051,-10438.619,-10439.632,-10448.494,-10454.8955,-10461.116,-10462.289,-10464.174,-10457.024,-10453.589,-10463.295,-10457.442,-10447.291,-10442.542,-10438.2,-10441.215,-10448.743,-10459.521,-10473.862,-10478.115,-10473.705,-10469.489,-10455.119,-10452.191,-10456.282,-10442.56,-10440.313,-10447.697,-10440.744,-10434.26,-10443.7,-10448.125,-10443.343,-10443.796,-10443.877,-10448.925,-10449.111,-10448.726,-10454.007,-10454.092,-10460.826,-10460.785,-10456.067,-10455.264,-10447.117,-10439.169,-10435.145,-10437.233,-10434.9,-10433.672,-10440.646,-10438.532,-10434.109,-10430.559,-10432.8125,-10440.439,-10437.609,-10438.959,-10443.763,-10441.024,-10439.153,-10432.538,-10430.268,-10432.624,-10425.852,-10425.064,-10420.704,-10411.119,-10418.997,-10423.562,-10420.014,-10428.009,-10431.398,-10426.077,-10426.231,-10428.32,-10436.467,-10443.026,-10440.077,-10440.7295,-10438.104,-10429.035,-10422.733,-10425.317,-10430.328,-10422.615,-10410.326,-10401.125,-10395.265,-10392.678,-10393.066,-10407.896,-10432.783,-10440.404,-10428.902,-10426.61,-10428.847,-10418.531,-10415.144,-10423.607,-10425.144,-10424.063,-10424.706,-10412.229,-10389.358,-10385.464,-10411.192,-10420.195,-10405.667,-10402.962,-10396.165,-10404.079,-10424.252,-10417.086,-10407.315,-10405.564,-10411.765,-10409.811,-10398.128,-10406.618,-10427.53,-10464.037,-10492.443,-10494.117,-10493.258,-10500.624,-10500.692,-10458.442,-10422.984,-10413.998,-10388.291,-10391.402,-10407.098,-10395.649,-10404.785,-10420.86,-10424.868,-10426.939,-10411.469,-10402.959,-10407.983,-10406.749,-10396.375,-10391.933,-10409.909,-10405.6875,-10398.707,-10409.146,-10385.125,-10371.045,-10397.363,-10440.129,-10463.991,-10444.77,-10429.092,-10453.242,-10505.622,-10504.078,-10463.244,-10451.886,-10409.528,-10385.9,-10406.129,-10395.54,-10408.174,-10418.518,-10400.141,-10425.526,-10431.812,-10397.079,-10404.555,-10454.605,-10505.482,-10535.941,-10536.237,-10494.535,-10468.696,-10482.493,-10466.647,-10443.286,-10413.249,-10382.05,-10423.171,-10462.237,-10457.93,-10461.145,-10443.072,-10424.529,-10441.12,-10495.728,-10578.474,-10604.941,-10569.847,-10568.965,-10577.127,-10511.522,-10460.704,-10433.324,-10365.256,-10412.025,-10506.165,-10505.788,-10520.458,-10532.224,-10541.436,-10548.802,-10510.2,-10490.203,-10472.419,-10485.78,-10559.002,-10605.342,-10596.111,-10532.757,-10447.799,-10407.41,-10414.744,-10450.697,-10496.695,-10499.745,-10505.446,-10523.261,-10485.565,-10449.277,-10425.997,-10449.292,-10517.508,-10494.553,-10431.956,-10431.751,-10472.609,-10558.341,-10651.431,-10675.289,-10667.077,-10570.169,-10414.9,-10434.496,-10535.463,-10593.12,-10597.3,-10492.137,-10388.552,-10343.838,-10361.984,-10442.928,-10519.338,-10603.922,-10687.443,-10662.3955,-10585.348,-10561.544,-10544.461,-10574.9795,-10569.99,-10462.784,-10407.156,-10413.618,-10432.819,-10406.64,-10412.164,-10524.908,-10554.068,-10456.259,-10417.114,-10444.59,-10441.9,-10545.601,-10649.191,-10614.077,-10691.926,-10763.323,-10639.378,-10507.243,-10462.343,-10451.605,-10475.454,-10530.564,-10495.912,-10433.431,-10494.055,-10621.775,-10743.914,-10797.202,-10700.852,-10533.207,-10464.367,-10455.299,-10449.549,-10471.759,-10476.84,-10518.178,-10563.551,-10557.523,-10559.585,-10580.153,-10709.281,-10865.117,-10862.278,-10736.198,-10594.33,-10560.541,-10597.527,-10624.681,-10645.816,-10595.53,-10528.387,-10474.293,-10352.838,-10334.674,-10507.211,-10565.97,-10452.295,-10441.959,-10523.583,-10537.91,-10529.409,-10550.292,-10566.694,-10551.687,-10564.08,-10679.406,-10786.272,-10783.116,-10703.612,-10596.996,-10558.441,-10589.049,-10625.753,-10606.038,-10540.188,-10578.786,-10589.467,-10443.48,-10384.417,-10425.811,-10435.293,-10481.484,-10530.814,-10531.99,-10580.664,-10694.912,-10764.545,-10686.109,-10610.195,-10705.382,-10708.998,-10563.399,-10596.129,-10691.641,-10644.545,-10641.444,-10650.171,-10540.322,-10476.619,-10454.978,-10420.779,-10487.811,-10548.488,-10562.108,-10601.989,-10568.535,-10513.765,-10502.266,-10516.273,-10568.854,-10583.169,-10553.041,-10481.887,-10455.284,-10552.617,-10605.161,-10595.055,-10585.571,-10590.834,-10596.524,-10515.069,-10536.362,-10694.705,-10735.9375,-10760.165,-10851.638,-10834.695,-10693.891,-10546.547,-10484.177,-10530.611,-10512.597,-10458.454,-10570.922,-10579.211,-10488.668,-10532.79,-10512.978,-10482.537,-10499.163,-10516.052,-10522.666,-10502.154,-10590.789,-10640.052,-10681.246,-10782.588,-10799.578,-10866.775,-10790.88,-10504.463,-10366.001,-10366.401,-10398.831,-10380.651,-10342.508,-10586.594,-10866.176,-10809.628,-10758.46,-10748.628,-10615.195,-10538.049,-10503.47,-10495.874,-10437.236,-10348.954,-10416.088,-10442.564,-10415.247,-10468.978,-10561.473,-10702.487,-10769.496,-10844.059,-10976.775,-10870.974,-10589.49,-10443.051,-10438.659,-10402.431,-10369.838,-10410.703,-10446.987,-10512.206,-10555.842,-10508.406,-10467.154,-10427.815,-10400.24,-10450.664,-10487.86,-10478.404,-10610.613,-10865.186,-10904.903,-10745.854,-10621.512,-10501.43,-10525.556,-10628.745,-10533.34,-10468.567,-10453.026,-10379.758,-10407.354,-10491.908,-10557.167,-10546.78,-10516.208,-10509.368,-10462.073,-10435.359,-10424.643,-10449.265,-10513.53,-10590.815,-10655.119,-10588.792,-10533.561,-10621.943,-10659.45,-10537.302,-10423.849,-10407.962,-10343.801,-10361.906,-10550.092,-10641.07,-10669.02,-10785.145,-10922.195,-10847.922,-10561.444,-10466.414,-10482.201,-10329.1045,-10234.298,-10313.051,-10377.845,-10432.404,-10567.332,-10667.446,-10676.225,-10632.674,-10597.591,-10550.481,-10434.717,-10403.356,-10432.609,-10431.35,-10410.89,-10382.027,-10450.377,-10511.847,-10571.063,-10669.167,-10672.563,-10695.637,-10690.69,-10629.675,-10610.994,-10580.0,-10648.413,-10660.206,-10476.501,-10384.778,-10417.874,-10396.061,-10316.8955,-10293.805,-10280.542,-10313.581,-10456.917,-10497.172,-10441.593,-10375.713,-10294.362,-10261.784,-10243.679,-10282.115,-10406.925,-10495.834,-10525.628,-10566.546,-10645.415,-10699.218,-10631.734,-10567.656,-10509.229,-10318.034,-10268.515,-10312.981,-10280.789,-10362.963,-10442.616,-10511.806,-10537.898,-10471.746,-10468.104,-10385.147,-10298.359,-10264.957,-10232.445,-10302.157,-10340.534,-10404.91,-10525.453,-10579.551,-10659.957,-10709.279,-10613.409,-10471.793,-10379.329,-10298.595,-10269.811,-10262.285,-10201.279,-10179.674,-10189.38,-10275.194,-10383.312,-10394.625,-10408.672,-10398.726,-10381.368,-10360.413,-10294.741,-10247.524,-10240.494,-10296.979,-10325.238,-10360.852,-10412.123,-10361.492,-10339.706,-10364.219,-10408.004,-10450.706,-10368.096,-10261.861,-10242.801,-10300.315,-10347.786,-10273.0,-10275.182,-10356.029,-10294.877,-10375.886,-10461.048,-10228.328,-10102.4375,-10145.326,-10190.193,-10221.412,-10160.109,-10151.297,-10192.428,-10233.723,-10290.477,-10345.154,-10364.572,-10303.33,-10317.834,-10357.012,-10311.779,-10260.45,-10182.162,-10069.256,-10004.592,-10128.1045,-10282.702,-10313.119,-10319.419,-10266.67,-10245.0625,-10263.508,-10259.852,-10345.908,-10378.201,-10266.947,-10172.826,-10152.373,-10233.486,-10329.139,-10287.115,-10247.355,-10203.345,-10079.8545,-10101.015,-10151.276,-10114.974,-10113.158,-10127.737,-10236.829,-10319.315,-10233.266,-10157.353,-10211.255,-10288.209,-10186.101,-10035.094
-10053.6,-10167.687,-10261.093,-10273.429,-10263.278,-10225.167,-10144.959,-10167.954,-10222.376,-10234.834,-10307.486,-10288.868,-10170.674,-10187.69,-10168.433,-10065.143,-10106.458,-10161.154,-10176.36,-10280.669,-10416.368,-10403.044,-10198.832,-10042.154,-10001.298,-9986.652,-9995.232,-10011.107,-10076.38,-10162.521,-10210.314,-10201.106,-10122.643,-10152.175,-10338.939,-10405.105,-10317.69,-10250.797,-10172.639,-10081.708,-9991.294,-9973.878,-10138.391,-10212.04,-10120.633,-10118.552,-10141.262,-10131.384,-10174.627,-10225.6875,-10206.653,-10135.118,-10129.893,-10138.12,-10062.833,-10060.27,-10078.154,-10016.799,-10054.01,-10106.8955,-10065.452,-10112.486,-10301.483,-10444.674,-10385.097,-10256.619,-10196.362,-10114.296,-10024.395,-9990.568,-10008.268,-10131.985,-10252.692,-10228.514,-10160.656,-10132.119,-10126.669,-10089.055,-10052.21,-10081.439,-10100.328,-10093.781,-10086.39,-10177.832,-10427.565,-10538.646,-10383.81,-10253.64,-10197.928,-10039.809,-9890.633,-9876.216,-9939.308,-9992.84,-9964.865,-10008.569,-10159.674,-10194.484,-10135.841,-10087.527,-10084.793,-10179.26,-10249.278,-10215.839,-10150.759,-10092.538,-10086.958,-10118.9375,-10192.358,-10237.057,-10136.452,-10136.239,-10231.583,-10166.554,-10153.553,-10171.376,-10068.121,-10077.831,-10090.436,-10018.736,-10105.944,-10292.325,-10449.159,-10442.278,-10215.764,-10001.172,-9938.63,-9959.152,-9942.601,-10003.803,-10144.321,-10150.96,-10107.856,-10104.854,-10144.347,-10162.5625,-10168.134,-10240.58,-10204.288,-10098.281,-9997.525,-9878.241,-9927.985,-10067.023,-10075.234,-9981.665,-9978.852,-10087.179,-10098.21,-10086.241,-10179.211,-10302.258,-10396.248,-10432.16,-10476.299,-10397.096,-10115.66,-9923.885,-9879.457,-9946.544,-10047.085,-9973.448,-9920.031,-10021.885,-10073.514,-10024.084,-10027.239,-10163.48,-10177.009,-10051.015,-10064.332,-10142.279,-10228.974,-10300.557,-10235.079,-10066.6,-9924.063,-9943.064,-10030.02,-10074.554,-10085.737,-10079.416,-10104.934,-10092.309,-10036.529,-10021.753,-10060.96,-10102.997,-10137.015,-10158.485,-10117.495,-10161.478,-10280.321,-10254.606,-10160.486,-10176.088,-10235.002,-10196.85,-10109.319,-10040.063,-10067.066,-10179.809,-10178.246,-10047.65,-9951.847,-10000.834,-10106.677,-10148.771,-10129.055,-10120.041,-10210.238,-10308.464,-10312.057,-10098.247,-9837.564,-9925.966,-10065.793,-10046.557,-10042.93,-10021.425,-10059.949,-10061.353,-10046.201,-10152.263,-10143.923,-10118.181,-10155.052,-10130.216,-10243.52,-10459.66,-10482.44,-10330.175,-10169.523,-9950.115,-9816.172,-9883.37,-9913.77,-10034.8,-10183.217,-10127.445,-10144.583,-10198.641,-10174.117,-10117.48,-10014.218,-10060.941,-10123.224,-10039.881,-9962.446,-9984.554,-10206.762,-10297.746,-10064.892,-9984.342,-10092.993,-10141.652,-10191.901,-10156.259,-10073.348,-10115.764,-10064.785,-9997.473,-10088.436,-10087.918,-10075.297,-10127.916,-10127.898,-10103.318,-10049.862,-10076.23,-10132.124,-10153.456,-10274.598,-10376.443,-10322.072,-10161.58,-10054.108,-10064.406,-10088.283,-10059.329,-9964.406,-9955.375,-10034.638,-10063.666,-10045.216,-9975.412,-10021.758,-10084.068,-10006.634,-10030.921,-10052.089,-10076.008,-10162.113,-10108.212,-10090.735,-10079.18,-10001.121,-10000.465,-10009.212,-10093.925,-10181.877,-10195.391,-10275.042,-10273.929,-10208.077,-10226.158,-10133.926,-10004.545,-10066.59,-10089.238,-9909.695,-9808.048,-9850.85,-9846.598,-9941.724,-10130.836,-10243.219,-10315.682,-10188.463,-10013.656,-10072.196,-10147.349,-10179.394,-10301.463,-10468.151,-10440.453,-10147.293,-9971.742,-9961.653,-9834.345,-9798.748,-9880.252,-9872.1455,-9966.415,-10065.087,-10060.321,-10110.625,-10116.161,-10110.358,-10120.725,-10062.3125,-10044.782,-10063.973,-10125.897,-10264.568,-10274.998,-10113.013,-9954.489,-9906.166,-9961.2295,-10021.164,-10056.561,-10053.919,-10050.037,-10109.867,-10172.708,-10182.512,-10094.899,-10010.005,-10063.671,-10100.341,-9971.178,-9909.082,-10081.558,-10176.964,-10095.5,-10070.985,-10131.841,-10218.416,-10254.321,-10153.781,-10026.568,-10048.03,-10076.948,-9979.742,-9943.344,-10086.08,-10258.673,-10206.364,-10059.148,-9970.776,-9888.699,-9989.215,-10126.71,-10123.034,-10076.067,-10032.903,-10051.818,-9993.832,-9939.79,-9958.216,-9917.346,-9927.19,-9934.068,-9948.5205,-10079.358,-10270.5625,-10404.583,-10394.423,-10356.422,-10235.263,-10034.046,-9900.83,-9836.847,-9928.717,-10031.715,-10041.574,-10030.427,-10030.616,-10108.234,-9998.659,-9862.645,-9975.783,-10012.75,-10074.433,-10185.96,-10152.375,-10080.889,-10023.056,-10039.208,-10003.061,-10016.314,-10228.851,-10257.221,-10099.032,-10071.304,-10078.803,-9949.306,-9895.487,-9973.061,-9968.1045,-9992.925,-10102.515,-10188.225,-10137.438,-9986.511,-9982.89,-10097.604,-10178.867,-10112.985,-9918.397,-9794.115,-9833.143,-9943.223,-9944.422,-9901.371,-9911.33,-9937.815,-10007.238,-10091.809,-10115.495,-10060.516,-10071.853,-10175.949,-10287.055,-10413.63,-10266.692,-9892.356,-9857.473,-9985.148,-9937.792,-9845.175,-9784.482,-9902.953,-9990.377,-9966.667,-10032.048,-9995.831,-9989.473,-10072.683,-10187.488,-10355.245,-10304.283,-10128.158,-9948.703,-9859.403,-9938.122,-9896.671,-9789.108,-9751.889,-9774.017,-9926.117,-10076.595,-10143.278,-10107.584,-9986.042,-9950.858,-9955.285,-9910.251,-9910.053,-9959.561,-9905.622,-9779.135,-9879.518,-10096.461,-10149.178,-10150.423,-10259.494,-10297.62,-9987.276,-9838.263,-10054.471,-10025.765,-9938.766,-9968.438,-9962.052,-9982.268,-9920.81,-9892.54,-9885.126,-9875.19,-9937.635,-9950.827,-10033.094,-10052.913,-9964.565,-10004.508,-9976.021,-9870.497,-9883.91,-9941.013,-9956.626,-9949.415,-10006.299,-10133.999,-10215.522,-10126.621,-9976.8,-9995.603,-9985.959,-9839.304,-9807.582,-9850.696,-9911.491,-9960.3545,-9888.199,-9839.532,-9901.585,-9955.128,-9939.186,-9924.863,-9958.878,-10049.593,-10121.196,-10032.51,-9953.011,-9995.541,-9974.509,-9922.694,-9938.928,-9909.023,-9883.466,-10023.542,-10070.837,-9878.246,-9794.535,-9841.463,-9842.305,-9861.347,-9879.733,-9953.442,-10083.557,-10032.247,-9889.566,-9892.901,-9955.84,-9969.827,-9970.544,-9947.089,-9909.745,-9895.184,-9852.9375,-9847.791,-9894.443,-9900.747,-9928.966,-9921.478,-9858.417,-9872.331,-9900.433,-9909.282,-9913.383,-9903.073,-9940.18,-10045.777,-10255.162,-10403.704,-10261.706,-10006.708,-9847.02,-9781.734,-9806.854,-9843.557,-9808.193,-9844.006,-9973.824,-9978.553,-9888.753,-9828.473,-9836.753,-9874.448,-9872.116,-9914.315,-9945.807,-9936.12,-9912.592,-9857.4,-9909.93,-9937.809,-9863.956,-9858.094,-9886.858,-9925.378,-9914.499,-9892.132,-9948.795,-9995.523,-10003.959,-9949.517,-9895.105,-9896.228,-9901.906,-9871.183,-9790.212,-9802.871,-9847.533,-9832.524,-9853.497,-9850.231,-9838.344,-9834.15,-9841.347,-9865.944,-9844.021,-9858.104,-9874.977,-9844.955,-9817.724,-9804.161,-9837.795,-9857.741,-9845.292,-9832.228,-9816.517,-9810.94,-9810.564,-9838.774,-9872.827,-9874.1,-9858.343,-9855.206,-9867.814,-9875.603,-9892.184,-9880.169,-9837.683,-9843.75,-9858.035,-9830.204,-9809.378,-9810.6045,-9819.166,-9841.418,-9854.358,-9845.978,-9844.904,-9843.607,-9836.15,-9833.438,-9837.563,-9850.359,-9852.263,-9861.173,-9877.183,-9862.7295,-9855.11,-9860.526,-9872.473,-9916.002,-9915.316,-9880.123,-9892.268,-9884.28,-9878.139,-9924.355,-9947.594,-9960.338,-9970.365,-9982.731,-10026.971,-10050.902,-10060.042,-10071.952,-10075.749,-10094.363,-10123.166,-10136.397,-10144.65,-10163.947,-10168.057,-10180.212,-10201.469,-10198.636,-10202.614,-10207.507,-10224.03,-10242.562,-10231.407,-10246.749,-10275.512,-10272.971,-10268.099,-10268.567,-10260.677,-10271.069,-10295.209,-10288.706,-10273.403,-10268.567,-10270.546,-10273.609,-10266.536,-10266.504,-10265.965,-10269.097,-10281.948,-10278.259,-10256.416,-10246.572,-10274.14,-10302.168,-10308.022,-10293.404,-10260.44,-10254.411,-10262.688,-10272.058,-10293.036,-10285.357,-10273.455,-10282.488,-10282.712,-10277.79,-10270.994,-10273.733,-10282.683,-10280.745,-10283.982,-10282.819,-10277.02,-10283.203,-10292.061,-10299.823,-10301.787,-10294.742,-10285.765,-10287.759,-10290.629,-10291.538,-10299.677,-10289.4,-10284.759,-10298.509,-10294.8,-10287.927,-10291.987,-10307.983,-10321.826,-10322.617,-10320.782,-10311.019,-10299.59,-10300.183,-10322.3,-10342.113,-10342.002,-10352.844,-10370.495,-10384.157,-10388.892,-10375.707,-10377.298,-10392.588,-10389.893,-10387.1,-10399.85,-10403.8,-10398.728,-10414.876,-10431.042,-10426.059,-10432.019,-10445.154,-10464.877,-10489.525,-10482.833,-10478.296,-10489.807,-10481.672,-10472.419,-10469.425,-10471.81,-10492.746,-10511.346,-10512.928,-10512.492,-10514.982,-10519.91,-10530.397,-10540.232,-10550.316,-10560.484,-10563.842,-10564.003,-10571.505,-10581.487,-10565.384,-10543.406,-10566.737,-10605.039,-10618.639,-10632.364,-10643.404,-10638.877,-10644.269,-10650.341,-10649.302,-10660.387,-10663.594,-10661.725,-10687.938,-10707.635,-10690.952,-10685.261,-10700.14,-10708.054,-10710.686,-10706.584,-10706.136,-10715.741,-10723.611,-10731.199,-10738.127,-10738.58,-10738.7,-10737.451,-10737.096,-10752.163,-10761.323,-10766.235,-10774.636,-10767.684,-10773.589,-10781.326,-10767.621,-10770.882,-10793.262,-10791.64,-10782.863,-10814.024,-10837.971,-10837.399,-10839.765,-10817.766,-10795.055,-10798.287,-10812.275,-10825.872,-10823.787,-10819.527,-10818.228,-10815.93,-10825.195,-10823.378,-10814.871,-10826.975,-10824.921,-10809.919,-10808.498,-10812.512,-10824.983,-10827.931,-10828.046,-10843.017,-10846.348,-10851.145,-10872.062,-10885.87,-10893.531,-10901.995,-10906.3125,-10896.886,-10880.907,-10898.871,-10917.715,-10898.573,-10911.237,-10933.5,-10920.289,-10914.026,-10892.875,-10879.318,-10899.11,-10901.098,-10894.197,-10893.484,-10909.953,-10931.661,-10921.279,-10916.594,-10927.54,-10922.97,-10920.851,-10928.847,-10932.312,-10932.325,-10929.395,-10924.72,-10929.192,-10924.296,-10909.407,-10934.768,-10969.926,-10960.111,-10944.481,-10938.165,-10938.799,-10955.853,-10955.524,-10945.956,-10947.861,-10946.747,-10946.879,-10956.581,-10970.128,-10958.584,-10939.452,-10938.672,-10929.367,-10925.422,-10926.876,-10925.049,-10926.55,-10915.74,-10914.395,-10916.097,-10908.22,-10898.456,-10875.875,-10885.42,-10930.498,-10956.14,-10949.4795,-10924.775,-10912.899,-10909.074,-10898.274,-10883.588,-10875.277,-10885.146,-10886.644,-10884.945,-10890.997,-10895.239,-10911.341,-10922.673,-10924.814,-10918.139,-10907.999,-10916.695,-10915.448,-10907.248,-10905.18,-10901.562,-10911.575,-10914.461,-10909.829,-10912.981,-10922.299,-10936.295,-10935.154,-10940.158,-10952.74,-10948.89,-10946.549,-10949.295,-10960.085,-10968.27,-10966.752,-10966.929,-10956.845,-10954.643,-10959.423,-10959.014,-10979.3125,-10985.407,-10963.633,-10964.763,-10989.5205,-11004.932,-10992.956,-10986.402,-10998.214,-11004.045,-11017.333,-11021.403,-11009.018,-10996.963,-10980.751,-10979.946,-10985.634,-10984.769,-10985.382,-10981.9375,-10984.769,-10988.07,-10982.921,-10989.592,-10998.521,-10984.742,-10980.335,-10999.808,-10996.586,-10974.016,-10972.312,-10999.835,-11029.0625,-11031.543,-11024.961,-11018.395,-11015.3955,-11031.081,-11046.832,-11046.898,-11031.528,-11024.031,-11038.47,-11053.134,-11056.343,-11041.104,-11027.867,-11019.968,-11009.029,-11019.647,-11037.732,-11058.757,-11086.541,-11096.063,-11077.444,-11056.113,-11053.568,-11033.641,-11013.887,-11019.341,-11007.14,-10997.143,-11005.952,-11017.276,-11040.77,-11051.076,-11033.579,-11022.039,-11034.419,-11058.4375,-11055.15,-11031.918,-11033.014,-11031.767,-11035.49,-11065.364,-11076.931,-11064.971,-11030.22,-11019.058,-11077.111,-11111.455,-11087.463,-11070.046,-11066.425,-11058.487,-11051.742,-11059.566,-11069.1,-11061.438,-11060.033,-11080.063,-11127.587,-11188.766,-11205.595,-11177.107,-11121.482,-11078.547,-11067.04,-11059.054,-11135.901,-11196.073,-11133.32,-11124.166,-11140.843,-11127.719,-11120.165,-11095.519,-11165.824,-11297.645,-11325.816,-11215.402,-11063.247,-11022.498,-11045.444,-11062.826,-11107.257,-11099.467,-11055.782,-11049.699,-11018.17,-10993.204,-11001.802,-10990.549,-10989.629,-10996.806,-11006.17,-11009.775,-10966.599,-10929.378,-10978.17,-11064.122,-11094.086,-11127.48,-11194.916,-11237.521,-11209.555,-11093.441,-11034.345,-11073.836,-11092.338,-11090.283,-11114.318,-11155.38,-11179.916,-11213.139,-11176.874,-11014.518,-10933.852,-10957.128,-10966.469,-10993.076,-11002.177,-10992.224,-11009.833,-11034.756,-11052.622,-11090.978,-11198.32,-11249.812,-11145.154,-11057.881,-11113.84,-11174.103,-11074.35,-10917.868,-10831.392,-10848.163,-10970.354,-11035.399,-11001.625,-10986.619,-10992.941,-10918.993,-10837.549,-10899.554,-10928.997,-10877.557,-10866.802,-10860.8955,-10894.116,-10932.791,-10941.219,-10970.149,-11027.648,-11079.407,-11068.7,-11029.99,-10973.399,-10943.739,-10979.809,-10990.61,-10957.329,-10918.468,-10929.996,-10932.212,-10901.908,-10977.824,-11072.31,-11073.984,-11035.453,-10946.044,-10825.97,-10782.648,-10805.392,-10816.129
-10848.033,-10887.29,-10902.84,-10923.4795,-10954.874,-10983.478,-10961.1875,-10940.283,-10947.617,-10915.16,-10936.089,-10956.817,-10822.905,-10771.792,-10888.553,-10958.825,-10999.246,-10987.691,-10905.805,-10864.206,-10853.178,-10876.207,-10913.41,-10967.502,-11056.544,-11012.158,-10897.376,-10941.835,-10957.897,-10830.367,-10764.803,-10770.043,-10822.231,-10902.419,-10894.67,-10866.503,-10904.129,-10907.242,-10876.24,-10945.393,-11024.791,-11005.968,-10943.622,-10878.811,-10913.306,-10990.558,-10941.562,-10856.627,-10848.69,-10835.826,-10803.296,-10821.741,-10826.731,-10800.599,-10862.28,-11071.04,-11225.15,-11083.256,-10881.198,-10827.319,-10786.344,-10785.442,-10827.749,-10900.894,-11027.425,-11008.187,-10864.829,-10813.562,-10879.841,-10935.886,-10857.306,-10781.343,-10801.62,-10805.043,-10794.04,-10836.17,-10914.833,-10945.159,-10918.114,-10942.259,-11061.459,-11068.405,-10880.177,-10752.953,-10761.569,-10823.184,-10793.413,-10689.148,-10838.016,-11053.151,-10980.124,-10801.3,-10778.829,-10957.346,-11080.466,-11045.595,-10996.303,-10909.601,-10866.194,-10871.72,-10813.612,-10808.849,-10847.614,-10824.49,-10832.306,-10893.978,-10908.966,-10895.05,-10889.626,-10891.651,-10930.833,-10917.491,-10830.196,-10795.528,-10830.789,-10896.195,-10893.217,-10797.073,-10748.024,-10777.439,-10819.055,-10876.653,-10970.761,-10998.634,-10939.54,-10880.545,-10823.347,-10861.201,-10935.878,-10933.546,-10953.627,-10916.151,-10806.884,-10787.326,-10879.773,-10962.366,-10915.239,-10830.622,-10787.77,-10797.275,-10852.084,-10889.01,-10910.1,-10886.496,-10846.115,-10860.534,-10950.86,-11023.219,-10940.725,-10839.103,-10818.1,-10841.808,-10861.189,-10813.239,-10826.274,-10916.645,-11015.692,-11102.982,-11057.542,-10962.917,-10905.358,-10813.408,-10799.208,-10908.019,-10978.037,-10948.562,-10861.39,-10802.365,-10793.605,-10779.14,-10845.968,-10924.738,-10875.459,-10840.937,-10856.568,-10875.556,-10873.384,-10837.186,-10863.417,-10907.007,-10909.72,-10896.076,-10894.541,-10959.226,-11023.855,-11046.043,-11042.492,-10966.034,-10876.938,-10880.514,-10942.519,-10995.264,-10964.251,-10838.549,-10786.613,-10844.781,-10861.649,-10849.882,-10873.229,-10869.216,-10851.738,-10865.686,-10891.817,-10929.794,-10918.085,-10857.015,-10850.354,-10885.733,-10897.447,-10919.659,-10963.733,-10892.7,-10779.184,-10892.379,-11131.034,-11202.008,-11152.123,-11074.955,-10871.4795,-10763.821,-10831.234,-10781.592,-10754.74,-10807.389,-10811.7295,-10830.223,-10857.664,-10998.226,-11103.132,-10969.536,-10863.144,-10890.689,-10914.028,-10888.046,-10843.066,-10830.627,-10874.358,-10969.805,-11067.893,-11073.791,-10982.78,-10943.295,-11020.308,-11112.519,-11146.638,-11053.442,-10883.775,-10950.132,-11107.15,-10982.282,-10867.5625,-10855.875,-10787.239,-10829.148,-10892.298,-10906.413,-11012.727,-11104.479,-10985.271,-10777.788,-10778.005,-10858.945,-10849.406,-10870.473,-10936.91,-11026.01,-11064.206,-11038.974,-11038.81,-11043.54,-11053.854,-11033.172,-10985.946,-10903.557,-10773.672,-10781.6,-10891.167,-10931.492,-10918.945,-10967.708,-11135.34,-11203.061,-11079.762,-10976.5,-10913.105,-10842.583,-10849.917,-10837.784,-10775.858,-10852.016,-10949.863,-10952.524,-10974.484,-10962.068,-10917.127,-10922.26,-10948.805,-10969.077,-10984.701,-11023.068,-11040.152,-11004.479,-10932.028,-10861.515,-10876.857,-10907.651,-10913.673,-10910.564,-10844.8125,-10839.335,-10964.307,-11047.897,-11019.291,-11020.808,-11076.102,-11054.387,-11000.398,-10973.776,-10911.973,-10816.835,-10733.979,-10756.3125,-10865.575,-10917.132,-10923.462,-10882.639,-10873.263,-11013.835,-11058.957,-10983.394,-10992.432,-11014.336,-11019.788,-10971.957,-10880.323,-10837.775,-10799.7295,-10863.475,-11026.838,-11068.829,-10998.548,-10979.486,-11002.774,-10935.021,-10865.609,-10873.8,-10864.747,-10874.653,-11012.913,-11209.69,-11156.546,-10950.969,-10888.47,-10824.299,-10787.02,-10806.345,-10779.801,-10814.259,-10899.135,-11001.745,-11015.87,-10886.167,-10839.6045,-10917.181,-10950.8955,-10900.204,-10925.628,-10981.959,-10871.468,-10830.483,-11000.498,-11111.465,-11072.729,-10963.571,-10886.484,-10845.702,-10809.047,-10992.102,-11231.577,-11132.417,-10910.151,-10840.515,-10829.144,-10787.784,-10811.974,-10889.882,-10952.54,-10991.491,-10895.321,-10819.769,-10909.095,-10963.457,-10903.931,-10887.14,-10978.789,-10991.371,-10875.715,-10749.249,-10742.011,-10830.517,-10818.577,-10809.159,-10873.469,-10891.542,-10901.529,-10948.567,-10940.485,-10839.54,-10852.282,-10960.543,-11004.786,-11048.298,-10991.975,-10859.435,-10876.011,-10948.439,-10901.827,-10802.849,-10775.578,-10845.376,-10954.667,-11024.959,-11054.631,-11054.724,-11101.958,-11157.768,-10973.774,-10743.469,-10761.782,-10817.199,-10771.356,-10761.091,-10837.277,-10888.039,-10877.3955,-10877.974,-10849.582,-10806.611,-10819.91,-10851.815,-10941.892,-11102.682,-11137.208,-10918.648,-10743.243,-10799.689,-10837.645,-10868.864,-10895.484,-10858.822,-10917.67,-10943.102,-10924.713,-10906.99,-10787.176,-10756.765,-10827.585,-10823.683,-10774.059,-10773.214,-10813.288,-10824.151,-10885.585,-11008.011,-11025.459,-10896.266,-10754.412,-10725.515,-10754.734,-10755.462,-10808.005,-10920.712,-10931.545,-10882.487,-10862.11,-10832.072,-10982.581,-11310.032,-11371.517,-11021.882,-10694.848,-10705.043,-10801.22,-10799.242,-10758.418,-10697.861,-10676.788,-10661.208,-10637.243,-10691.012,-10753.459,-10779.135,-10842.155,-10853.441,-10764.53,-10769.52,-10902.692,-10986.576,-10915.704,-10773.685,-10751.311,-10830.165,-10867.787,-10858.903,-10896.543,-11010.873,-10960.285,-10734.147,-10684.976,-10750.975,-10755.988,-10809.687,-10926.795,-10912.302,-10745.173,-10726.318,-10791.935,-10738.178,-10679.863,-10646.808,-10684.237,-10761.398,-10778.302,-10762.405,-10761.782,-10830.798,-10842.085,-10771.481,-10797.564,-10961.08,-11002.158,-10761.894,-10691.252,-10873.458,-11007.841,-11072.777,-10992.652,-10874.91,-10797.814,-10761.933,-10693.28,-10554.667,-10645.467,-10716.793,-10666.39,-10812.805,-10940.779,-10955.478,-10848.013,-10684.213,-10694.577,-10708.077,-10642.2705,-10617.608,-10622.792,-10698.053,-10757.13,-10692.6045,-10756.921,-10964.719,-11062.797,-11088.804,-11020.135,-10889.259,-10798.631,-10733.987,-10753.586,-10715.619,-10646.825,-10658.047,-10628.044,-10709.611,-10822.017,-10743.498,-10670.328,-10723.27,-10773.573,-10708.881,-10677.719,-10728.0205,-10767.587,-10798.508,-10753.476,-10719.614,-10667.223,-10615.709,-10815.493,-11031.157,-10930.63,-10659.683,-10576.692,-10665.306,-10627.494,-10574.748,-10649.469,-10695.741,-10705.639,-10780.651,-10841.741,-10798.501,-10725.275,-10648.164,-10573.581,-10570.968,-10574.326,-10572.102,-10603.695,-10600.314,-10597.391,-10628.139,-10730.003,-10831.993,-10771.511,-10696.206,-10679.716,-10660.889,-10671.657,-10670.399,-10637.893,-10573.945,-10535.444,-10595.442,-10703.559,-10801.131,-10823.436,-10807.875,-10849.424,-10770.667,-10581.544,-10561.565,-10570.38,-10511.269,-10502.634,-10532.116,-10613.384,-10624.325,-10594.006,-10632.908,-10678.34,-10730.972,-10667.3,-10558.365,-10553.712,-10582.276,-10747.555,-10995.066,-11059.657,-10905.318,-10627.164,-10412.873,-10437.361,-10469.568,-10431.794,-10541.394,-10591.609,-10590.958,-10631.961,-10572.933,-10579.115,-10613.43,-10609.9795,-10641.598,-10729.925,-10782.673,-10567.332,-10411.247,-10439.45,-10396.35,-10442.041,-10523.442,-10586.46,-10676.5625,-10693.377,-10759.374,-10870.447,-10870.707,-10817.454,-10745.16,-10548.703,-10424.469,-10492.317,-10459.716,-10405.201,-10431.769,-10498.732,-10678.446,-10719.616,-10605.23,-10571.34,-10618.125,-10656.025,-10600.897,-10556.284,-10541.557,-10472.99,-10410.312,-10384.519,-10419.07,-10495.219,-10488.475,-10411.459,-10465.2295,-10651.625,-10741.659,-10591.973,-10364.906,-10345.342,-10394.238,-10386.929,-10456.567,-10540.273,-10637.236,-10727.03,-10734.262,-10720.44,-10729.005,-10712.794,-10546.325,-10432.362,-10493.357,-10528.434,-10549.397,-10486.559,-10416.55,-10460.98,-10433.003,-10382.165,-10445.3955,-10568.478,-10574.43,-10495.932,-10545.038,-10658.534,-10695.322,-10608.126,-10483.95,-10356.019,-10238.043,-10282.757,-10458.464,-10633.012,-10595.333,-10432.6455,-10463.269,-10529.187,-10603.105,-10683.248,-10647.758,-10664.251,-10590.1,-10442.014,-10451.82,-10507.434,-10526.719,-10418.555,-10332.675,-10342.6,-10359.127,-10481.506,-10449.706,-10382.73,-10516.492,-10515.634,-10485.115,-10487.757,-10426.831,-10477.283,-10574.394,-10703.778,-10822.599,-10750.121,-10521.46,-10357.948,-10426.897,-10511.834,-10511.437,-10474.914,-10423.475,-10496.896,-10483.183,-10392.997,-10402.823,-10437.656,-10549.293,-10552.051,-10481.99,-10456.878,-10315.995,-10262.594,-10453.923,-10715.225,-10736.435,-10540.692,-10481.51,-10574.681,-10615.409,-10504.926,-10400.609,-10389.106,-10390.7295,-10434.215,-10513.096,-10560.494,-10494.747,-10432.314,-10482.422,-10515.583,-10540.532,-10554.897,-10478.173,-10399.254,-10399.158,-10432.714,-10455.578,-10466.541,-10539.322,-10658.481,-10624.507,-10525.548,-10489.457,-10425.318,-10476.921,-10542.2705,-10481.09,-10622.984,-10795.166,-10666.9795,-10545.823,-10491.334,-10350.9795,-10332.355,-10422.347,-10443.564,-10451.581,-10452.857,-10431.924,-10421.143,-10424.632,-10483.111,-10607.493,-10688.992,-10573.637,-10377.415,-10358.31,-10404.693,-10376.494,-10368.865,-10359.096,-10359.16,-10416.051,-10450.801,-10468.362,-10507.272,-10559.368,-10594.653,-10565.853,-10518.288,-10567.472,-10682.233,-10706.299,-10624.684,-10541.134,-10520.185,-10536.807,-10551.087,-10507.958,-10380.144,-10358.798,-10432.274,-10406.689,-10415.25,-10456.722,-10433.589,-10460.753,-10505.357,-10535.71,-10535.599,-10469.598,-10448.912,-10490.184,-10520.228,-10451.246,-10363.802,-10414.678,-10482.118,-10531.379,-10577.804,-10570.849,-10620.693,-10705.516,-10707.7705,-10649.222,-10633.32,-10702.151,-10696.493,-10504.893,-10294.006,-10234.887,-10279.268,-10345.304,-10418.526,-10465.857,-10488.575,-10534.427,-10524.007,-10398.3125,-10345.51,-10389.408,-10393.613,-10434.345,-10489.402,-10513.676,-10584.146,-10609.795,-10614.628,-10649.882,-10553.368,-10452.438,-10487.856,-10463.239,-10411.262,-10437.302,-10488.395,-10587.742,-10603.16,-10497.982,-10419.718,-10353.493,-10359.945,-10434.09,-10481.999,-10511.059,-10543.817,-10668.083,-10753.616,-10640.572,-10451.946,-10346.25,-10372.655,-10386.6045,-10386.487,-10448.674,-10484.992,-10520.672,-10527.529,-10512.731,-10583.704,-10667.9375,-10667.604,-10601.975,-10596.022,-10601.791,-10494.268,-10339.981,-10247.213,-10427.915,-10700.449,-10623.77,-10453.474,-10482.439,-10502.412,-10430.36,-10370.979,-10351.116,-10373.037,-10469.617,-10605.621,-10639.12,-10512.939,-10452.637,-10550.161,-10577.454,-10523.546,-10485.903,-10443.259,-10448.309,-10475.294,-10473.339,-10478.78,-10446.225,-10413.816,-10453.986,-10490.773,-10493.28,-10525.876,-10606.157,-10549.263,-10371.946,-10392.549,-10506.353,-10508.498,-10472.378,-10387.115,-10320.929,-10352.297,-10413.734,-10530.091,-10673.955,-10662.033,-10469.796,-10332.79,-10360.371,-10393.352,-10423.863,-10507.4375,-10500.295,-10400.496,-10347.904,-10385.106,-10442.846,-10429.473,-10428.76,-10477.52,-10475.518,-10458.6455,-10464.795,-10498.981,-10544.754,-10511.52,-10488.574,-10580.296,-10633.577,-10580.03,-10586.161,-10629.863,-10531.535,-10416.333,-10380.466,-10311.169,-10350.205,-10521.769,-10568.89,-10438.502,-10245.898,-10245.948,-10410.381,-10434.841,-10444.508,-10514.876,-10536.972,-10531.885,-10508.857,-10520.538,-10506.93,-10502.457,-10554.252,-10531.341,-10488.626,-10453.911,-10425.464,-10452.363,-10473.197,-10437.14,-10363.253,-10367.136,-10447.131,-10499.847,-10499.067,-10445.003,-10477.024,-10565.333,-10538.573,-10586.115,-10680.281,-10553.584,-10449.214,-10509.076,-10538.6045,-10551.751,-10457.285,-10259.514,-10281.186,-10396.849,-10421.099,-10502.432,-10480.1455,-10392.03,-10425.192,-10457.585,-10563.375,-10638.714,-10576.364,-10526.598,-10465.534,-10432.919,-10398.491,-10397.746,-10481.703,-10468.271,-10423.027,-10407.744,-10399.715,-10453.4795,-10513.437,-10580.151,-10615.448,-10587.534,-10581.476,-10577.035,-10534.8125,-10443.284,-10382.919,-10431.774,-10425.801,-10389.378,-10454.506,-10475.822,-10448.318,-10438.928,-10432.93,-10463.848,-10485.811,-10588.549,-10725.777,-10597.914,-10416.899,-10437.648,-10417.809,-10379.121,-10436.863,-10421.596,-10371.499,-10375.623,-10398.658,-10422.166,-10429.624,-10454.948,-10473.428,-10473.964,-10466.442,-10450.982,-10455.446,-10452.347,-10456.084,-10450.086,-10432.566,-10433.645,-10412.41,-10412.944,-10456.263,-10477.224,-10438.428,-10381.578,-10401.274,-10504.164,-10586.753,-10566.49,-10508.139,-10485.846,-10501.464,-10522.404,-10486.553,-10437.563,-10429.373,-10432.493,-10442.281,-10456.348,-10461.466,-10458.193,-10449.414,-10451.15,-10465.692,-10470.07,-10468.785,-10459.346,-10450.84,-10472.008,-10482.616,-10465.988,-10460.411,-10468.961,-10476.003,-10483.783,-10488.221,-10478.769,-10469.449,-10457.214,-10453.62,-10466.311,-10471.736,-10505.006,-10536.961,-10502.23,-10477.952,-10483.469,-10471.256,-10485.917,-10506.971,-10507.1045,-10515.065,-10515.726,-10523.0,-10528.692,-10521.651,-10527.55,-10526.576,-10516.988,-10516.356,-10516.614,-10514.404
