SampleData
0.0,-10236.207,-27244.61,-11597.285,7865.0273,-11608.378,-8148.032,828.12885,-12828.507,-3061.8318,-6600.1855,-10268.368,-3032.9087,-11129.472,-5228.174,-7389.144,-8628.647,-4375.8574,-9189.456,-4401.9146,-6896.776,-6057.893,-4555.7925,-7199.2046,-4179.424,-6836.964,-5388.79,-5917.9604,-6988.2686,-5678.148,-7699.1772,-6421.5293,-7545.57,-7374.9487,-6887.1587,-7647.9395,-6544.245,-7223.811,-6387.9404,-6282.114,-6256.031,-5623.2227,-6051.763,-5476.352,-5824.1636,-5821.1216,-5863.0103,-6272.6807,-6170.822,-6666.7446,-6701.501,-6971.0376,-7167.23,-7129.104,-7224.714,-6920.264,-6932.8877,-6761.1885,-6548.556,-6413.4297,-6138.4204,-6062.148,-5906.8765,-5907.2344,-5904.8843,-5930.8315,-6126.7085,-6252.627,-6431.0635,-6547.466,-6706.716,-6865.299,-6964.176,-7080.034,-7053.508,-6957.882,-6783.417,-6630.2695,-6537.8354,-6380.417,-6216.3296,-6070.122,-6040.974,-6048.797,-6014.648,-6045.0464,-6112.8667,-6243.7197,-6391.7666,-6509.1147,-6650.129,-6760.6396,-6828.9243,-6862.6777,-6859.139,-6828.65,-6756.9326,-6657.731,-6528.335,-6405.157,-6312.034,-6200.908,-6110.9766,-6113.822,-6145.7163,-6166.4775,-6248.415,-6336.9883,-6397.7646,-6487.7993,-6558.021,-6632.598,-6726.0044,-6768.067,-6772.3823,-6751.3677,-6702.67,-6595.864,-6455.272,-6358.7173,-6311.0225,-6322.8677,-6288.125,-6195.6313,-6207.0337,-6245.425,-6295.2866,-6431.2734,-6518.218,-6515.8394,-6536.6904,-6608.0674,-6647.223,-6649.317,-6638.7554,-6606.8843,-6612.0664,-6593.04,-6497.0767,-6407.049,-6349.5425,-6318.2446,-6285.723,-6248.108,-6233.578,-6256.956,-6305.268,-6362.686,-6454.5713,-6533.5435,-6561.4536,-6589.9307,-6649.2285,-6719.402,-6739.0835,-6683.7134,-6589.0474,-6527.972,-6529.605,-6519.73,-6449.1177,-6358.795,-6312.2974,-6314.783,-6332.9893,-6352.3306,-6371.919,-6393.901,-6441.393,-6496.824,-6511.224,-6533.8604,-6555.15,-6549.476,-6558.5347,-6529.4287,-6491.9556,-6468.527,-6439.4136,-6453.8384,-6445.067,-6436.9697,-6457.466,-6439.797,-6459.3735,-6470.0796,-6428.0474,-6446.905,-6472.8457,-6466.812,-6489.461,-6497.9893,-6501.0283,-6540.429,-6554.184,-6528.0103,-6509.1465,-6519.9727,-6538.096,-6507.143,-6446.9556,-6423.1606,-6438.6885,-6441.72,-6426.586,-6435.1475,-6449.2886,-6478.8364,-6518.1616,-6515.2925,-6516.0366,-6503.713,-6457.841,-6450.2896,-6474.431,-6511.0845,-6512.041,-6483.2695,-6486.9497,-6471.2725,-6456.322,-6466.661,-6466.434,-6468.397,-6463.034,-6476.7715,-6507.1973,-6508.2334,-6499.0986,-6495.13,-6492.2754,-6480.6885,-6462.496,-6459.4155,-6453.9478,-6447.1196,-6474.422,-6489.6973,-6464.919,-6457.1943,-6464.644,-6472.8667,-6487.851,-6496.6694,-6515.3345,-6539.688,-6567.8228,-6591.892,-6539.9077,-6462.052,-6467.0513,-6497.758,-6491.528,-6461.361,-6446.507,-6461.4697,-6454.452,-6452.342,-6472.0254,-6482.5405,-6501.504,-6530.5894,-6569.297,-6573.4224,-6562.4673,-6564.5864,-6539.332,-6530.9077,-6513.3022,-6488.1934,-6484.133,-6453.978,-6440.3086,-6437.946,-6445.65,-6481.9375,-6493.8633,-6481.0845,-6473.9087,-6485.1943,-6487.208,-6527.148,-6595.596,-6568.53,-6546.394,-6579.534,-6559.157,-6531.8384,-6537.2188,-6530.6763,-6498.5874,-6472.5576,-6457.6235,-6468.517,-6536.2856,-6543.8833,-6477.028,-6437.394,-6427.1934,-6480.2188,-6514.745,-6508.497,-6539.7905,-6540.213,-6562.732,-6594.3594,-6565.917,-6549.736,-6531.4053,-6517.143,-6498.8477,-6459.75,-6451.528,-6456.416,-6448.2437,-6462.8994,-6515.806,-6526.177,-6500.0967,-6536.3975,-6616.4272,-6625.109,-6556.1724,-6564.805,-6622.6943,-6627.2446,-6607.133,-6565.0356,-6545.739,-6529.3604,-6485.3354,-6457.5835,-6447.9043,-6466.1113,-6466.1465,-6463.746,-6519.6587,-6549.0254,-6491.5146,-6455.6157,-6515.608,-6566.7485,-6578.2554,-6600.685,-6619.9614,-6614.096,-6594.0996,-6580.602,-6550.7773,-6539.5806,-6544.15,-6515.7026,-6497.7036,-6475.1294,-6451.048,-6468.224,-6491.2173,-6497.3916,-6504.3755,-6526.8325,-6545.6826,-6575.6294,-6624.983,-6650.1543,-6666.682,-6647.5483,-6559.9546,-6515.042,-6543.7026,-6544.0425,-6513.371,-6489.715,-6475.4023,-6488.179,-6514.737,-6535.6543,-6520.246,-6493.037,-6519.718,-6549.3823,-6556.6807,-6565.7275,-6586.4307,-6608.621,-6607.6978,-6624.1353,-6622.3896,-6574.1294,-6533.3896,-6512.351,-6519.425,-6514.458,-6493.2524,-6487.568,-6481.966,-6479.7793,-6481.9795,-6497.5244,-6531.5913,-6579.117,-6593.233,-6565.2305,-6579.895,-6604.5483,-6599.0557,-6611.989,-6622.362,-6607.197,-6591.4204,-6585.006,-6570.9404,-6541.227,-6515.8984,-6502.4634,-6493.754,-6488.2715,-6483.1606,-6494.4434,-6526.068,-6556.77,-6602.658,-6656.6333,-6676.1743,-6652.94,-6605.137,-6578.5796,-6566.8774,-6551.119,-6569.984,-6578.536,-6569.384,-6570.5264,-6516.835,-6473.2017,-6477.1533,-6480.279,-6510.5186,-6516.357,-6518.6904,-6552.2075,-6565.875,-6590.7046,-6595.4683,-6580.2466,-6592.331,-6602.821,-6602.7266,-6580.608,-6560.955,-6560.668,-6557.9624,-6530.128,-6490.801,-6515.195,-6551.6973,-6560.512,-6577.8784,-6549.3525,-6531.1763,-6563.874,-6573.1157,-6609.788,-6652.494,-6635.1143,-6607.3003,-6563.308,-6551.608,-6576.0986,-6551.0977,-6543.76,-6560.777,-6556.2,-6558.1597,-6554.0938,-6544.974,-6531.793,-6524.918,-6533.369,-6530.2676,-6530.4775,-6540.895,-6570.4473,-6617.9385,-6636.4443,-6634.501,-6631.099,-6631.3726,-6620.337,-6583.6475,-6573.902,-6586.796,-6603.9805,-6621.316,-6610.5605,-6590.145,-6555.338,-6531.013,-6537.5127,-6547.476,-6563.0156,-6557.982,-6559.4697,-6570.698,-6565.7974,-6577.7886,-6588.324,-6601.5093,-6590.0205,-6561.953,-6568.5093,-6566.204,-6578.9697,-6597.443,-6631.958,-6706.1885,-6706.812,-6654.936,-6589.55,-6529.208,-6560.8438,-6611.5444,-6619.5425,-6607.667,-6598.645,-6610.8965,-6588.9624,-6577.4546,-6600.0063,-6578.5244,-6565.619,-6569.107,-6533.425,-6504.9487,-6518.4277,-6536.933,-6546.612,-6589.617,-6647.429,-6672.1562,-6673.2046,-6656.9995,-6648.0415,-6667.2476,-6651.119,-6612.6694,-6622.5747,-6600.866,-6577.3584,-6621.617,-6627.572,-6627.1343,-6613.472,-6554.7705,-6553.115,-6559.308,-6553.519,-6560.653,-6569.188,-6595.688,-6602.02,-6598.9517,-6596.017,-6597.785,-6628.239,-6636.381,-6610.315,-6603.7344,-6624.2573,-6637.86,-6620.822,-6600.5264,-6639.2163,-6670.7812,-6616.9873,-6575.3833,-6605.474,-6645.31,-6645.713,-6645.366,-6641.406,-6600.7007,-6616.5444,-6654.744,-6624.237,-6607.864,-6615.723,-6618.418,-6639.1772,-6634.7803,-6602.3477,-6587.306,-6575.7456,-6570.3564,-6576.2754,-6582.1533,-6591.6304,-6597.817,-6607.065,-6600.565,-6594.2627,-6610.823,-6630.783,-6673.8784,-6711.675,-6716.9814,-6648.3003,-6553.506,-6579.198,-6637.1357,-6687.7964,-6734.2305,-6673.371,-6631.0405,-6664.887,-6671.802,-6655.578,-6630.3345,-6619.378,-6624.177,-6629.063,-6641.1367,-6640.817,-6632.031,-6630.9683,-6635.056,-6636.77,-6651.241,-6663.417,-6613.0957,-6559.6143,-6562.9087,-6576.0234,-6607.6055,-6662.717,-6700.715,-6710.12,-6694.559,-6655.933,-6613.4624,-6596.068,-6597.8467,-6614.3867,-6630.1426,-6626.7686,-6618.83,-6608.6396,-6610.8647,-6612.0684,-6611.986,-6640.3613,-6650.416,-6639.7393,-6655.112,-6676.2607,-6645.332,-6573.453,-6556.9614,-6588.3486,-6616.385,-6631.1226,-6603.3135,-6593.7705,-6612.2485,-6597.418,-6595.1753,-6607.4673,-6597.8286,-6581.856,-6583.0615,-6596.7646,-6586.9004,-6586.0576,-6608.3154,-6608.8145,-6614.051,-6634.5176,-6633.2085,-6611.7593,-6603.756,-6615.8804,-6625.2397,-6640.1655,-6645.63,-6630.809,-6628.354,-6637.0913,-6641.8296,-6624.148,-6608.534,-6616.4243,-6608.3936,-6593.432,-6590.064,-6592.6104,-6610.354,-6639.592,-6663.141,-6668.845,-6659.149,-6643.1997,-6624.5894,-6623.814,-6658.5107,-6670.203,-6633.874,-6618.267,-6632.7007,-6651.9077,-6675.5024,-6669.921,-6625.834,-6600.4277,-6614.173,-6646.366,-6674.6357,-6654.2383,-6606.4546,-6593.9414,-6614.8135,-6643.9263,-6656.472,-6642.3228,-6609.597,-6586.935,-6615.452,-6635.4443,-6610.427,-6630.143,-6659.0312,-6647.9214,-6652.103,-6656.046,-6659.972,-6659.1855,-6648.0894,-6647.984,-6638.2803,-6645.803,-6656.4536,-6646.494,-6652.3794,-6668.701,-6678.423,-6672.9746,-6674.5723,-6682.1323,-6679.3745,-6674.11,-6660.9565,-6661.4287,-6669.0083,-6677.7036,-6697.547,-6698.2114,-6677.457,-6679.894,-6710.6826,-6703.979,-6670.166,-6639.7676,-6603.156,-6602.798,-6633.637,-6670.0435,-6697.473,-6705.1855,-6701.6157,-6676.983,-6662.549,-6668.775,-6672.52,-6669.106,-6659.396,-6664.272,-6667.8384,-6656.0894,-6654.62,-6663.9053,-6661.8223,-6653.023,-6657.1787,-6661.548,-6664.212,-6661.2373,-6648.459,-6654.028,-6658.9673,-6663.294,-6702.598,-6735.5347,-6741.7617,-6743.4395,-6734.592,-6711.8726,-6660.452,-6623.596,-6649.7236,-6681.925,-6679.963,-6636.167,-6618.5073,-6680.272,-6698.997,-6662.5493,-6660.0005,-6659.229,-6636.9316,-6617.898,-6640.645,-6686.6855,-6691.4565,-6676.4663,-6655.994,-6627.2686,-6637.657,-6680.608,-6706.957,-6711.276,-6717.845,-6716.776,-6682.304,-6661.1816,-6692.7715,-6721.554,-6709.999,-6694.345,-6704.4565,-6714.721,-6720.9155,-6726.963,-6667.454,-6594.5522,-6625.2666,-6707.294,-6741.41,-6703.6235,-6674.228,-6677.1846,-6655.9673,-6646.5376,-6646.554,-6663.0283,-6679.4355,-6651.5894,-6658.3706,-6678.173,-6671.212,-6650.7773,-6651.8423,-6734.83,-6774.526,-6725.019,-6700.9697,-6702.0654,-6671.516,-6642.2134,-6678.2905,-6700.737,-6683.229,-6681.9473,-6678.8296,-6690.965,-6701.268,-6693.818,-6690.076,-6678.295,-6664.9053,-6661.5684,-6672.294,-6667.7114,-6668.5293,-6704.135,-6713.904,-6685.615,-6675.1113,-6709.2734,-6715.3267,-6696.314,-6733.88,-6753.983,-6716.1514,-6688.1006,-6691.0557,-6698.3945,-6694.1523,-6699.1655,-6712.748,-6716.1636,-6704.865,-6697.705,-6700.9463,-6702.0312,-6696.422,-6676.4277,-6667.8735,-6674.694,-6688.741,-6706.7705,-6703.3003,-6717.4995,-6731.122,-6719.5835,-6740.431,-6743.39,-6717.4614,-6711.112,-6696.4165,-6681.082,-6689.3706,-6728.1533,-6747.468,-6699.3833,-6669.221,-6699.7695,-6718.524,-6707.812,-6713.138,-6738.8906,-6747.149,-6732.9717,-6727.526,-6733.653,-6739.2437,-6741.566,-6738.2666,-6741.0386,-6726.921,-6691.835,-6677.269,-6671.5356,-6676.541,-6694.9346,-6709.9165,-6726.7637,-6730.7505,-6750.0273,-6776.424,-6758.671,-6748.1245,-6749.0425,-6734.836,-6740.3,-6717.3804,-6676.6147,-6691.4976,-6709.855,-6715.722,-6719.0493,-6716.911,-6733.8286,-6732.471,-6727.398,-6737.911,-6747.184,-6762.086,-6734.583,-6726.334,-6783.043,-6781.9937,-6760.9062,-6778.071,-6758.4175,-6718.054,-6703.353,-6733.969,-6751.692,-6714.293,-6703.6323,-6704.582,-6702.5776,-6717.014,-6714.3564,-6715.9453,-6717.9067,-6715.7075,-6707.094,-6691.415,-6731.2495,-6790.38,-6766.919,-6711.085,-6734.7944,-6780.6587,-6765.9404,-6740.0205,-6749.1333,-6774.9214,-6775.289,-6768.1895,-6773.1187,-6766.5103,-6768.1895,-6778.165,-6772.3613,-6766.4897,-6774.446,-6771.8364,-6747.748,-6752.273,-6809.4424,-6846.674,-6809.051,-6734.2188,-6700.968,-6736.917,-6756.092,-6767.901,-6788.123,-6747.315,-6751.446,-6790.464,-6787.279,-6794.509,-6780.9165,-6768.7026,-6756.632,-6735.4697,-6731.811,-6714.0845,-6718.864,-6729.0493,-6732.23,-6746.39,-6740.762,-6744.4395,-6754.0146,-6755.377,-6757.428,-6760.044,-6764.126,-6751.7476,-6742.0664,-6743.147,-6762.948,-6815.498,-6839.5845,-6810.9766,-6769.167,-6736.713,-6743.1743,-6772.6504,-6775.887,-6772.1313,-6772.642,-6780.869,-6819.891,-6838.8687,-6813.1055,-6807.357,-6814.519,-6793.2954,-6784.11,-6792.0396,-6803.258,-6819.489,-6818.478,-6803.7056,-6777.3125,-6789.7993,-6829.186,-6822.842,-6821.9775,-6827.8403,-6833.612,-6851.176,-6848.3438,-6878.8857,-6902.389,-6870.7344,-6853.277,-6828.546,-6818.376,-6847.4644,-6852.28,-6841.549,-6818.563,-6821.391,-6875.9956,-6898.044,-6868.65,-6817.3687,-6799.259,-6818.553,-6824.2036,-6847.9526,-6860.819,-6825.867,-6806.225,-6826.1245,-6833.128,-6817.916,-6819.5815,-6816.3506,-6801.959,-6796.4233,-6816.414,-6845.221,-6856.2637,-6868.595,-6851.0166,-6859.972,-6929.873,-6943.168,-6893.2085,-6825.7114,-6777.857,-6780.6074,-6818.0684,-6852.701,-6841.5366,-6827.063,-6821.3706,-6819.1797,-6850.0405,-6840.54,-6784.1167,-6762.434,-6798.571,-6863.311,-6882.0864,-6845.2095,-6804.3984,-6792.956,-6806.327,-6804.3525,-6805.796,-6831.328,-6829.1655,-6801.7363,-6801.616,-6811.7607,-6802.326,-6799.374,-6805.2725,-6802.9976,-6794.526,-6781.9023,-6791.1533,-6821.086,-6833.7188,-6792.3184,-6726.492,-6730.8193,-6773.8267,-6803.405,-6820.069,-6798.2837,-6779.192,-6778.4805,-6788.569,-6803.642,-6795.1675,-6796.983,-6795.497,-6766.678,-6753.314,-6754.8765,-6752.41,-6748.7515,-6749.7036,-6734.4697,-6707.42,-6735.8516,-6791.4062,-6802.664,-6802.6562,-6806.9683,-6804.458,-6805.6865,-6783.9053,-6736.117,-6730.8325,-6762.9233,-6759.283,-6758.818,-6767.2407,-6748.176,-6754.2812,-6776.219,-6781.272,-6750.431,-6711.89,-6712.852,-6716.932,-6725.6445,-6719.2256,-6714.8193,-6749.4795,-6776.5557,-6810.9033,-6819.8193,-6792.366,-6785.513,-6775.67,-6757.882,-6739.612,-6729.1455,-6728.996,-6718.285,-6700.467
-6694.554,-6718.7007,-6736.702,-6735.213,-6745.921,-6753.478,-6737.5996,-6707.4087,-6704.5967,-6724.6167,-6729.7666,-6724.65,-6710.8916,-6722.577,-6760.9067,-6773.3125,-6756.3203,-6729.9697,-6737.0527,-6766.862,-6766.257,-6742.13,-6711.1123,-6727.811,-6793.587,-6811.8506,-6763.157,-6700.6304,-6695.1157,-6744.1777,-6775.884,-6773.4424,-6760.875,-6768.1514,-6764.8647,-6752.6533,-6775.0615,-6768.7134,-6741.528,-6757.098,-6775.3335,-6766.0605,-6748.6914,-6752.2856,-6758.8496,-6752.516,-6749.523,-6748.5127,-6766.6235,-6778.083,-6764.3945,-6740.9204,-6740.091,-6799.4395,-6806.5728,-6745.6123,-6731.886,-6747.214,-6769.458,-6768.3633,-6732.596,-6728.6265,-6744.0796,-6741.8647,-6747.2393,-6774.5264,-6801.0083,-6804.7646,-6787.513,-6771.312,-6753.2876,-6727.05,-6730.452,-6755.742,-6768.0474,-6769.155,-6748.3765,-6743.0127,-6774.311,-6792.954,-6804.6714,-6811.0015,-6827.0796,-6856.774,-6834.3706,-6804.32,-6824.3564,-6842.3945,-6791.406,-6707.578,-6712.9155,-6774.545,-6817.6733,-6849.8555,-6846.8853,-6822.9985,-6797.611,-6781.7793,-6786.537,-6787.3823,-6780.653,-6755.5967,-6740.2905,-6764.265,-6774.2197,-6760.1562,-6749.4326,-6734.6426,-6750.5264,-6816.6113,-6838.7266,-6795.439,-6760.809,-6755.802,-6778.163,-6777.7896,-6749.1406,-6750.3555,-6768.597,-6799.757,-6827.6143,-6823.59,-6814.034,-6801.767,-6792.274,-6788.5063,-6764.9263,-6732.7866,-6724.3154,-6742.063,-6759.5283,-6762.2964,-6757.3105,-6760.799,-6773.136,-6798.2617,-6822.867,-6790.793,-6760.466,-6768.72,-6749.6763,-6748.6494,-6737.2446,-6704.27,-6751.6333,-6782.123,-6769.663,-6795.1255,-6800.4443,-6779.968,-6759.761,-6758.596,-6789.3867,-6810.4346,-6793.599,-6764.987,-6766.7466,-6764.439,-6756.685,-6768.0654,-6766.074,-6761.7925,-6760.3345,-6762.6436,-6774.638,-6782.8345,-6803.411,-6830.7275,-6833.4155,-6816.8037,-6828.3057,-6841.633,-6797.455,-6769.768,-6781.0693,-6767.5728,-6756.186,-6752.7334,-6745.7163,-6757.1113,-6763.8525,-6770.332,-6778.969,-6769.142,-6766.922,-6762.204,-6765.5273,-6779.8057,-6756.486,-6748.61,-6768.8228,-6758.396,-6740.8994,-6746.1895,-6760.446,-6778.4277,-6805.545,-6811.381,-6802.9224,-6805.12,-6808.7227,-6827.6914,-6831.9307,-6814.331,-6817.7456,-6845.427,-6878.61,-6865.465,-6813.668,-6772.241,-6758.7563,-6776.5303,-6793.029,-6820.2827,-6832.6455,-6799.382,-6816.9707,-6876.5576,-6869.039,-6805.4736,-6774.08,-6788.3223,-6800.3237,-6789.6436,-6759.5063,-6757.619,-6768.5806,-6769.955,-6804.515,-6815.6777,-6805.422,-6803.9014,-6776.46,-6769.9487,-6781.8276,-6772.488,-6768.014,-6775.796,-6772.6333,-6760.888,-6737.991,-6740.3984,-6789.2935,-6789.5522,-6787.8193,-6811.166,-6785.459,-6779.2383,-6774.9937,-6769.4243,-6812.9897,-6849.828,-6863.3853,-6847.0747,-6810.5957,-6797.04,-6806.9854,-6782.906,-6750.04,-6763.827,-6752.0776,-6753.2207,-6780.5215,-6755.7217,-6752.514,-6785.8833,-6798.7007,-6787.0557,-6770.737,-6787.3564,-6803.8022,-6787.426,-6811.3394,-6860.9824,-6861.407,-6835.447,-6795.194,-6801.26,-6826.845,-6778.865,-6753.6406,-6779.0435,-6794.429,-6781.585,-6767.7563,-6786.7656,-6789.565,-6772.6094,-6775.87,-6814.2363,-6842.773,-6836.153,-6836.738,-6825.869,-6797.705,-6767.618,-6737.959,-6729.7803,-6762.616,-6802.667,-6797.5977,-6796.5127,-6814.928,-6843.3794,-6845.2095,-6761.7954,-6738.042,-6784.512,-6790.267,-6811.2607,-6798.181,-6758.0986,-6773.6963,-6787.9956,-6794.917,-6793.695,-6788.615,-6806.842,-6803.97,-6793.5146,-6821.1787,-6868.675,-6883.956,-6880.6455,-6906.7646,-6908.6074,-6846.755,-6767.403,-6745.0703,-6770.1675,-6766.9365,-6759.7314,-6780.557,-6831.2124,-6873.288,-6872.766,-6871.971,-6841.121,-6807.72,-6824.802,-6859.971,-6906.5386,-6892.917,-6858.8467,-6853.0356,-6822.83,-6840.2354,-6831.91,-6790.406,-6809.8174,-6809.765,-6839.2656,-6863.026,-6846.8076,-6840.721,-6773.504,-6777.228,-6857.01,-6877.457,-6876.048,-6857.012,-6860.6675,-6858.971,-6834.664,-6839.9463,-6835.528,-6844.506,-6870.268,-6876.7915,-6858.646,-6845.1265,-6848.6533,-6817.0815,-6815.4404,-6864.519,-6881.109,-6875.6387,-6845.405,-6779.853,-6768.111,-6841.405,-6879.675,-6890.063,-6918.696,-6886.0625,-6849.4673,-6856.3955,-6873.8823,-6897.1274,-6887.3647,-6869.901,-6881.371,-6915.0654,-6926.2935,-6895.79,-6863.1523,-6821.652,-6810.671,-6842.5244,-6865.975,-6879.998,-6863.721,-6831.124,-6827.2085,-6834.9424,-6813.0815,-6799.7153,-6856.5654,-6918.513,-6928.6416,-6886.6763,-6815.2495,-6794.814,-6827.594,-6841.197,-6823.1367,-6823.7007,-6838.474,-6851.113,-6875.836,-6869.705,-6862.3477,-6895.6987,-6929.2197,-6945.9136,-6915.408,-6838.145,-6793.517,-6836.8345,-6884.7705,-6876.609,-6878.281,-6865.3555,-6851.8926,-6905.2793,-6941.6787,-6925.5176,-6923.1987,-6913.7456,-6860.211,-6847.4985,-6873.5693,-6847.9526,-6827.736,-6849.8804,-6864.7183,-6843.713,-6818.57,-6844.9194,-6869.565,-6838.137,-6805.4507,-6838.2812,-6895.3022,-6891.8867,-6867.7485,-6874.6855,-6880.662,-6877.1455,-6882.446,-6875.4365,-6842.1665,-6837.5737,-6889.5586,-6958.7227,-6987.0938,-6923.8,-6841.196,-6845.243,-6890.6343,-6925.0303,-6939.4556,-6888.4917,-6825.8613,-6838.926,-6855.552,-6850.4844,-6857.439,-6832.91,-6833.4023,-6846.994,-6823.2256,-6844.175,-6872.29,-6862.637,-6806.4624,-6734.8657,-6768.762,-6848.3896,-6862.3945,-6850.004,-6863.3877,-6891.2993,-6911.3193,-6886.7417,-6848.3354,-6869.5356,-6885.5176,-6868.681,-6846.379,-6844.431,-6862.6216,-6833.218,-6846.1875,-6896.7056,-6860.9653,-6834.066,-6869.5747,-6877.9116,-6846.9937,-6829.977,-6829.144,-6846.991,-6869.2075,-6864.602,-6863.7915,-6874.032,-6882.8857,-6874.49,-6857.1045,-6847.5312,-6864.417,-6902.114,-6904.525,-6910.26,-6883.65,-6815.7305,-6806.3286,-6836.607,-6882.8135,-6874.3823,-6846.95,-6869.3726,-6870.0103,-6877.337,-6875.578,-6860.1343,-6854.577,-6819.033,-6801.26,-6806.5615,-6813.648,-6840.4087,-6858.6777,-6838.198,-6819.9106,-6829.828,-6823.665,-6826.677,-6858.1514,-6884.3237,-6921.124,-6939.107,-6893.5415,-6845.308,-6831.436,-6815.7124,-6812.925,-6835.8423,-6858.7686,-6877.176,-6895.3696,-6892.5693,-6852.9585,-6836.9307,-6850.363,-6829.044,-6807.696,-6826.013,-6845.6475,-6836.777,-6813.194,-6818.1836,-6897.69,-6993.2188,-6981.272,-6894.2646,-6840.948,-6871.0073,-6940.666,-6919.0933,-6862.495,-6879.8755,-6889.558,-6869.9795,-6865.145,-6891.2417,-6904.208,-6865.6587,-6855.1016,-6838.8545,-6807.496,-6844.519,-6852.478,-6828.9023,-6856.5337,-6878.7974,-6870.1045,-6820.2495,-6798.2773,-6859.969,-6891.592,-6862.594,-6810.8477,-6799.227,-6843.6055,-6847.38,-6840.9814,-6855.877,-6851.761,-6835.1274,-6826.7,-6841.5996,-6843.818,-6837.8716,-6845.8516,-6866.388,-6878.1567,-6841.861,-6830.7295,-6865.3994,-6893.2793,-6881.173,-6855.5728,-6927.4526,-6991.9976,-6953.808,-6911.0933,-6913.229,-6924.8887,-6860.2217,-6809.4185,-6814.5728,-6803.836,-6813.5977,-6809.5728,-6824.4316,-6846.5645,-6829.0493,-6857.2427,-6881.086,-6879.452,-6863.8994,-6812.1157,-6808.3057,-6837.313,-6851.386,-6872.3096,-6886.5176,-6882.8936,-6843.076,-6808.856,-6826.9243,-6841.7925,-6879.4766,-6927.6543,-6901.459,-6867.171,-6851.359,-6827.0156,-6814.472,-6839.0894,-6895.396,-6894.9224,-6860.265,-6851.0547,-6830.7524,-6824.523,-6856.7295,-6886.959,-6882.3403,-6862.491,-6877.9805,-6954.5273,-7015.841,-6963.011,-6867.923,-6805.2427,-6767.9097,-6794.297,-6835.786,-6847.8213,-6848.3223,-6812.4893,-6803.643,-6813.0664,-6823.2505,-6871.327,-6868.4424,-6852.602,-6850.0093,-6848.5786,-6875.9834,-6856.187,-6849.526,-6899.5586,-6947.2715,-6935.462,-6857.5615,-6842.2227,-6878.9253,-6863.9077,-6801.619,-6768.8794,-6789.916,-6846.156,-6894.6973,-6838.279,-6789.015,-6803.4233,-6793.6733,-6801.4243,-6806.348,-6814.6523,-6791.567,-6705.2334,-6693.874,-6755.8306,-6791.953,-6779.551,-6768.7515,-6785.7925,-6826.4136,-6870.4004,-6811.8228,-6732.1387,-6751.2227,-6754.7817,-6748.0054,-6772.9243,-6754.103,-6737.2407,-6743.5684,-6756.201,-6782.6934,-6752.7363,-6723.276,-6753.2197,-6786.332,-6830.6655,-6845.19,-6777.917,-6730.149,-6793.9277,-6818.1045,-6745.228,-6753.538,-6780.2134,-6743.903,-6751.121,-6760.649,-6730.222,-6704.74,-6658.5073,-6637.688,-6688.666,-6723.548,-6718.644,-6689.8545,-6659.0015,-6663.181,-6669.588,-6677.2944,-6701.6616,-6725.408,-6726.351,-6733.5234,-6793.2524,-6808.6216,-6739.8423,-6699.0103,-6668.146,-6619.195,-6652.0723,-6722.4556,-6729.278,-6697.747,-6668.434,-6657.121,-6638.9546,-6619.5195,-6628.6714,-6672.0396,-6715.1484,-6694.9326,-6636.428,-6583.101,-6596.139,-6667.071,-6684.3105,-6667.1216,-6642.559,-6622.2407,-6649.411,-6668.8745,-6644.3574,-6629.633,-6678.179,-6747.7734,-6760.313,-6741.724,-6724.4683,-6665.764,-6608.576,-6630.1973,-6644.8916,-6644.989,-6682.9077,-6648.12,-6613.577,-6681.1816,-6704.326,-6679.94,-6647.906,-6619.599,-6676.0605,-6692.3496,-6659.1084,-6711.1533,-6738.858,-6705.8857,-6696.479,-6694.498,-6668.5293,-6663.9062,-6686.1245,-6661.0117,-6635.244,-6637.023,-6636.892,-6644.607,-6646.2515,-6681.029,-6720.1807,-6712.6064,-6697.016,-6684.378,-6689.8945,-6692.3726,-6677.15,-6669.32,-6668.4478,-6697.9707,-6736.7964,-6728.8345,-6728.356,-6801.3696,-6862.7915,-6871.8228,-6839.7437,-6745.7817,-6695.21,-6691.318,-6691.602,-6742.845,-6761.206,-6740.1636,-6724.2446,-6726.394,-6794.981,-6811.6855,-6749.8213,-6717.1406,-6702.8276,-6719.522,-6731.1626,-6725.5596,-6736.43,-6713.387,-6691.2085,-6690.6387,-6711.8037,-6758.6104,-6800.17,-6825.5767,-6781.6235,-6745.8994,-6772.6206,-6777.578,-6773.0903,-6772.502,-6800.027,-6833.625,-6804.2153,-6782.658,-6797.46,-6784.003,-6760.3896,-6756.7676,-6773.201,-6833.8726,-6872.5586,-6846.787,-6836.1274,-6820.8643,-6744.0493,-6684.6704,-6722.593,-6748.847,-6733.3755,-6756.0737,-6763.501,-6776.2695,-6782.12,-6763.078,-6772.402,-6761.014,-6755.1514,-6781.289,-6837.973,-6868.4897,-6807.671,-6790.7627,-6870.5537,-6944.6343,-6914.872,-6848.0273,-6838.862,-6815.577,-6797.0713,-6792.3027,-6816.135,-6865.8896,-6848.257,-6838.411,-6837.2544,-6804.8096,-6769.5757,-6744.347,-6771.133,-6781.944,-6792.486,-6833.199,-6856.061,-6887.2427,-6892.827,-6860.576,-6829.2285,-6834.44,-6856.305,-6843.4863,-6838.876,-6846.6475,-6838.219,-6826.697,-6814.8667,-6797.53,-6789.176,-6802.0205,-6812.8594,-6802.984,-6779.7974,-6774.6675,-6785.6455,-6787.601,-6781.0874,-6783.5547,-6806.9937,-6823.221,-6848.8354,-6871.6475,-6850.2407,-6849.322,-6874.6865,-6901.8833,-6929.439,-6906.551,-6851.3945,-6803.97,-6789.3423,-6823.3477,-6847.581,-6851.1953,-6882.574,-6917.7446,-6880.826,-6792.831,-6767.401,-6792.323,-6801.177,-6828.8535,-6867.777,-6872.1743,-6888.529,-6939.246,-6916.939,-6830.0303,-6819.6816,-6847.275,-6836.382,-6824.5083,-6822.1626,-6828.2954,-6859.9526,-6879.8306,-6831.124,-6808.8823,-6853.0825,-6858.498,-6861.7964,-6875.019,-6865.7285,-6862.1826,-6857.824,-6895.575,-6958.9814,-6981.663,-6964.395,-6900.805,-6858.7144,-6884.5737,-6867.965,-6824.0137,-6844.2466,-6844.585,-6834.1475,-6863.0024,-6871.073,-6904.666,-6941.4937,-6902.4404,-6875.157,-6878.2046,-6851.8535,-6835.2544,-6822.457,-6798.6094,-6801.711,-6815.216,-6842.8423,-6873.5596,-6884.1904,-6881.0645,-6863.0664,-6875.6943,-6900.7075,-6892.4663,-6870.26,-6844.4053,-6810.837,-6782.018,-6811.479,-6859.9023,-6884.12,-6918.355,-6923.5347,-6903.4033,-6860.0635,-6819.971,-6878.3457,-6916.7896,-6861.959,-6854.526,-6881.098,-6872.7485,-6875.1187,-6922.6543,-6981.7754,-6968.098,-6892.494,-6848.2603,-6856.7134,-6854.5103,-6835.32,-6878.716,-6912.3833,-6876.8916,-6852.7593,-6859.1147,-6907.599,-6936.0093,-6903.6016,-6934.9634,-7019.2725,-7005.731,-6920.95,-6883.7583,-6867.7754,-6831.53,-6816.8765,-6835.458,-6849.176,-6847.6016,-6850.1104,-6861.4565,-6877.5757,-6877.7085,-6894.391,-6955.2314,-6989.331,-6964.2456,-6912.4863,-6863.7197,-6829.0825,-6820.3413,-6840.192,-6886.5884,-6925.1016,-6898.777,-6903.892,-6963.968,-6951.0386,-6928.0264,-6946.094,-6954.3486,-6979.0737,-6971.954,-6912.4404,-6883.7017,-6913.1133,-6962.062,-6919.58,-6859.172,-6901.6724,-6911.4224,-6895.1606,-6935.6504,-7008.697,-7060.657,-7006.0244,-6927.417,-6907.6167,-6910.417,-6890.1636,-6857.0684,-6866.7563,-6886.8047,-6928.866,-6963.4663,-6937.219,-6941.901,-6940.1855,-6901.1436,-6913.9717,-6921.2007,-6891.743,-6874.5713,-6872.9995,-6901.3813,-6936.075,-6956.871,-6965.437,-6945.3755,-6920.363,-6918.1343,-6935.608,-6957.6475,-6960.592,-6945.993,-6972.1978,-6985.5425,-6890.586,-6816.833,-6839.85,-6910.8096,-6971.0854,-6940.1875,-6912.608,-6920.197,-6906.5264,-6903.1504,-6890.307,-6894.921,-6917.06,-6929.6133,-6930.4653,-6903.565,-6913.424,-6962.0586,-7030.0786,-7073.678,-7003.624,-6901.437,-6880.684,-6921.7505,-6916.6807,-6907.078,-6955.692,-6936.43,-6922.4014,-6950.166,-6909.5483,-6873.803,-6873.0107,-6904.4717,-6921.941,-6910.768,-6942.8604,-6951.3174,-6943.3135,-6942.4653,-6925.6694,-6928.965,-6949.7544,-6990.911,-6996.3364,-6958.247,-6948.1255,-6975.0327,-6989.9277
-6939.748,-6924.5405,-6962.409,-6945.5796,-6924.8726,-6961.66,-6968.132,-6909.5913,-6906.208,-6903.18,-6882.0254,-6934.858,-6940.1797,-6942.711,-6995.5986,-6990.6304,-6950.013,-6923.6514,-6943.1025,-6947.9854,-6923.171,-6898.503,-6847.291,-6848.325,-6878.8657,-6878.0054,-6896.4976,-6903.441,-6904.13,-6928.0854,-6917.8174,-6899.3804,-6906.527,-6904.465,-6907.8833,-6937.905,-7001.248,-7036.451,-6991.522,-6955.6543,-6965.108,-6962.9985,-6944.404,-6978.6787,-7041.744,-7024.5825,-6970.1646,-6924.141,-6876.0005,-6891.2285,-6957.684,-6968.2686,-6930.723,-6906.1733,-6868.3765,-6856.084,-6887.959,-6916.4185,-6954.962,-6983.789,-7017.882,-7003.953,-6906.85,-6888.8633,-6933.755,-6937.1196,-6923.9673,-6929.975,-6949.4663,-6928.0376,-6928.5938,-6965.782,-6965.811,-6998.8916,-7022.269,-6975.2095,-6938.7827,-6909.2515,-6906.294,-6912.733,-6876.832,-6899.0723,-6975.2773,-6976.9873,-6912.5146,-6882.315,-6905.3115,-6949.9253,-6995.586,-7014.1953,-7028.0537,-7014.052,-6963.632,-6942.676,-6927.4785,-6920.6465,-6924.8286,-6900.2593,-6887.5376,-6916.7183,-6960.728,-6972.288,-6950.3687,-6924.002,-6912.2983,-6926.157,-6929.555,-6930.675,-6933.2812,-6938.687,-6980.625,-6961.7764,-6918.9453,-6957.053,-6967.478,-6958.5273,-6964.012,-6954.2236,-6935.099,-6898.688,-6931.8223,-6986.5625,-6966.997,-6944.712,-6954.0444,-6977.5303,-6970.455,-6933.061,-6904.1875,-6905.5464,-6921.4175,-6905.5483,-6897.262,-6922.984,-6957.6846,-6966.133,-6945.668,-6930.847,-6906.164,-6894.362,-6914.7046,-6931.042,-6923.7617,-6920.5317,-6941.951,-6950.084,-6964.774,-6989.0786,-6994.47,-6996.812,-6984.8203,-6970.3257,-6959.7896,-6963.26,-7013.1313,-7037.1978,-6959.9663,-6875.978,-6894.8013,-6954.273,-6974.3877,-6986.6533,-6981.3574,-6920.1685,-6910.291,-6956.3306,-6942.334,-6938.816,-6955.5947,-6940.258,-6935.403,-6931.448,-6952.1235,-7001.0444,-7017.5815,-6995.6216,-6959.789,-6933.3955,-6927.4937,-6956.2197,-6998.2554,-7001.7876,-6971.899,-6964.907,-6961.167,-6927.393,-6939.854,-6966.7227,-6968.4126,-6987.907,-6982.849,-6966.3867,-6921.989,-6882.065,-6931.2407,-6963.4883,-6983.7905,-7018.6704,-6989.584,-6947.394,-6938.597,-6948.9067,-6945.9526,-6970.1157,-7024.1562,-6997.8594,-6958.926,-6943.523,-6909.541,-6928.2993,-6956.4077,-6942.4595,-6929.9077,-6929.569,-6939.073,-6947.2485,-6956.8433,-6966.2085,-6963.6875,-6958.7954,-6960.154,-6955.28,-6935.036,-6956.1753,-7032.7866,-7073.8623,-7073.897,-7077.815,-7037.562,-6969.5664,-6955.318,-6941.5625,-6912.8315,-6944.7227,-6991.4937,-7004.4336,-6975.577,-6938.5303,-6954.813,-6954.429,-6939.6807,-6943.6646,-6901.5527,-6909.5835,-7003.917,-7034.526,-7003.2285,-6992.1777,-6986.928,-6986.262,-6997.086,-6975.908,-6944.7603,-6937.0537,-6952.8916,-6986.201,-6976.891,-6971.1494,-6991.401,-6967.5117,-6966.3823,-7008.7837,-7036.0093,-7026.524,-6965.844,-6920.3706,-6954.3647,-6980.5234,-6943.125,-6938.674,-6960.8647,-6956.633,-6962.018,-6984.841,-6999.91,-6977.199,-6965.5137,-6973.6997,-6956.351,-6960.4067,-6970.821,-6961.359,-6954.7446,-6944.1113,-6941.816,-6966.5977,-7002.7144,-7005.859,-6990.328,-6991.8433,-6989.153,-6990.53,-7029.147,-7047.35,-6993.361,-6960.364,-6966.79,-6949.9224,-6941.486,-6941.0566,-6941.4126,-6958.6533,-6975.0986,-6997.35,-7013.3823,-6987.8945,-6942.3535,-6940.137,-6980.8896,-7004.9927,-7026.263,-7050.135,-7023.9043,-6986.2954,-6988.398,-7036.4395,-7081.764,-7042.756,-6987.0586,-6955.437,-6930.938,-6951.336,-6965.6816,-6972.0107,-6979.3706,-6950.4126,-6933.72,-6919.097,-6901.9536,-6929.321,-6960.3164,-6959.351,-6938.853,-6925.569,-6944.072,-6975.73,-7002.0425,-7041.437,-7078.004,-7065.603,-7026.2505,-7009.1016,-7046.6836,-7107.932,-7090.998,-6988.7217,-6903.156,-6912.5933,-6953.7676,-6957.956,-6991.189,-7030.362,-6999.222,-6955.853,-6947.7554,-6936.365,-6929.8755,-6953.706,-6961.2183,-6928.1567,-6917.1626,-6969.229,-6994.728,-6985.1387,-7011.77,-7017.472,-7022.847,-7038.93,-7013.5933,-6992.7134,-6964.2563,-6940.636,-6948.8555,-6958.1665,-6961.8867,-6957.905,-6996.9453,-7062.43,-7096.796,-7079.713,-6995.3496,-6947.679,-6983.9326,-7009.4736,-7003.227,-7023.304,-7038.2114,-7013.8345,-7000.1455,-6947.7905,-6906.872,-6947.69,-6966.114,-6980.7905,-6988.6,-6982.91,-6999.5854,-6984.5283,-7013.3887,-7073.4927,-7050.9775,-7006.492,-6980.373,-6964.3555,-6963.6763,-6951.037,-6940.564,-6933.865,-6925.965,-6985.5225,-7049.8193,-7030.2065,-7011.5205,-7011.0874,-6979.92,-6941.947,-6939.0547,-6971.956,-7000.31,-6993.9067,-6967.366,-6970.456,-6988.0044,-6978.4004,-6981.4653,-7012.2915,-7052.3833,-7087.8413,-7060.901,-7013.284,-7024.963,-7005.3467,-6942.4824,-6959.916,-7003.226,-6980.5913,-6980.7065,-7024.849,-7039.8296,-7044.095,-7023.683,-6982.3257,-6994.496,-7019.598,-6981.7954,-6938.3535,-6980.3223,-7036.4136,-7035.1074,-7023.5933,-7001.458,-6976.833,-6980.317,-7016.6357,-7046.6025,-7035.1855,-7057.9814,-7058.2676,-6977.8276,-6996.623,-7036.743,-6979.0713,-6987.8745,-6980.0693,-6919.4043,-6934.582,-6940.6367,-6942.018,-6958.0283,-6965.902,-6987.145,-6979.3193,-6976.7866,-6981.112,-6959.848,-6945.7446,-6955.759,-6984.195,-6985.4443,-6983.0376,-7012.8037,-7019.016,-7008.7437,-7032.476,-7046.4966,-7022.483,-7041.877,-7105.2065,-7109.553,-7069.839,-7029.1816,-6950.243,-6923.575,-6972.86,-6973.9634,-6975.9946,-6983.381,-6964.44,-6979.756,-7005.5327,-7018.1216,-6999.722,-6984.9575,-6979.8765,-6947.407,-6952.885,-6967.9253,-6967.1855,-6980.3945,-6982.379,-6985.36,-6969.9326,-6965.9575,-7030.9644,-7076.1006,-7051.601,-7017.7725,-6991.046,-6987.0103,-7034.097,-7062.2236,-7031.9688,-7010.0757,-7013.0547,-7004.9146,-6977.7666,-6968.2734,-6987.041,-7003.7056,-7014.3154,-7012.7544,-7019.8604,-7062.6826,-7085.8657,-7048.8945,-6991.871,-6965.371,-6972.5166,-6987.829,-7005.159,-7000.421,-6982.987,-6997.2534,-7020.659,-7062.88,-7090.501,-7041.129,-7010.031,-7023.147,-7032.5835,-7033.557,-7015.436,-7036.7183,-7074.577,-7069.7505,-7060.9517,-7061.006,-7065.7407,-7027.2026,-6971.377,-6977.1187,-6985.7803,-6992.442,-7022.4224,-7044.509,-7055.4834,-7033.084,-7002.326,-7003.8496,-7018.26,-7032.913,-7022.7847,-6990.261,-6988.291,-7014.83,-7032.0005,-7027.429,-7010.573,-7007.456,-7010.8745,-7009.156,-7032.2695,-7060.824,-7060.3315,-7058.234,-7079.0425,-7114.2627,-7109.9463,-7049.0522,-7012.8184,-7026.909,-7032.3833,-7024.4673,-7036.0146,-7053.764,-7044.3516,-7009.83,-7011.78,-7042.02,-7014.072,-6969.4824,-6983.7666,-7024.5063,-7030.2305,-7002.1606,-6994.898,-7000.3335,-6997.7363,-7013.4414,-7030.257,-7009.405,-6981.6885,-7009.489,-7061.0967,-7087.734,-7143.3047,-7202.8286,-7153.7046,-7053.406,-6990.598,-6940.1675,-6939.1484,-6988.886,-7021.7544,-7038.0913,-7047.4995,-7042.037,-7021.166,-7022.788,-7034.2256,-7029.528,-7044.916,-7065.575,-7076.1343,-7069.187,-7096.5625,-7154.4043,-7135.6626,-7088.223,-7014.354,-6967.31,-7063.851,-7098.0635,-7015.1675,-7007.8813,-7063.4004,-7109.298,-7092.387,-7048.095,-7051.739,-7024.1123,-6978.508,-6982.6665,-6997.9844,-7014.9375,-7038.1494,-7058.0366,-7067.5127,-7105.221,-7156.461,-7101.2017,-6996.933,-7019.9917,-7104.209,-7120.176,-7128.5654,-7140.9146,-7128.9316,-7109.848,-7055.046,-7022.136,-7030.187,-7016.418,-7022.382,-7027.427,-6997.247,-7003.5063,-7034.646,-7040.7134,-7033.4116,-7024.0337,-7023.2188,-7041.246,-7073.807,-7130.093,-7171.219,-7124.134,-7073.443,-7082.6465,-7078.247,-7082.2856,-7125.1895,-7164.4873,-7142.8076,-7109.032,-7107.0464,-7052.258,-7026.6436,-7054.901,-7064.245,-7087.1924,-7084.9277,-7079.7314,-7090.583,-7086.4326,-7052.9863,-7003.0293,-7012.397,-7029.0723,-7026.396,-7047.6313,-7078.2437,-7110.831,-7108.307,-7078.1465,-7053.112,-7039.3115,-7043.08,-7064.872,-7125.179,-7184.7705,-7169.7603,-7120.8403,-7095.248,-7028.438,-6958.396,-7016.816,-7116.08,-7142.2363,-7109.5635,-7071.605,-7115.7964,-7168.3345,-7137.786,-7119.7188,-7138.754,-7129.319,-7081.4683,-7039.361,-7021.978,-7027.1357,-7076.1104,-7097.2417,-7070.0366,-7073.2607,-7107.753,-7172.7485,-7231.6147,-7219.9194,-7125.9175,-7035.2344,-7044.843,-7066.6914,-7065.163,-7073.012,-7049.366,-7046.2007,-7066.533,-7057.5054,-7069.344,-7092.156,-7105.24,-7139.6216,-7126.9194,-7063.803,-7045.71,-7055.1704,-7056.3115,-7094.0396,-7157.8022,-7183.7036,-7196.9165,-7211.8115,-7194.745,-7122.301,-7032.892,-7038.533,-7070.0215,-7067.0874,-7104.5605,-7125.014,-7091.709,-7062.823,-7073.089,-7073.8433,-7056.3687,-7058.6963,-7046.7974,-7045.3975,-7071.042,-7123.3804,-7147.715,-7101.577,-7095.9263,-7126.4507,-7126.6074,-7094.2334,-7082.316,-7120.016,-7152.452,-7172.226,-7153.148,-7141.2505,-7185.397,-7182.391,-7102.807,-7039.709,-7055.893,-7082.8916,-7099.3896,-7146.9736,-7144.085,-7110.6636,-7129.1084,-7128.618,-7113.7847,-7118.4814,-7086.495,-7086.1045,-7147.88,-7177.8467,-7190.8906,-7169.6675,-7089.776,-7079.666,-7148.4253,-7165.924,-7110.871,-7049.9365,-7039.7285,-7090.539,-7142.507,-7125.421,-7081.2305,-7084.9624,-7105.98,-7103.1562,-7089.564,-7064.2163,-7042.4775,-7058.0938,-7074.406,-7083.567,-7097.182,-7083.1426,-7071.5786,-7079.9673,-7114.364,-7149.582,-7131.02,-7097.723,-7087.7104,-7136.8896,-7197.4395,-7179.419,-7117.736,-7063.7188,-7074.4595,-7119.604,-7121.578,-7117.2383,-7162.425,-7197.724,-7142.616,-7097.8936,-7091.486,-7081.522,-7089.8315,-7068.694,-7075.034,-7094.2686,-7073.401,-7110.4033,-7187.8135,-7205.0825,-7107.8853,-7021.3516,-7037.6396,-7068.8345,-7089.883,-7087.0303,-7107.512,-7116.4277,-7085.2246,-7135.6704,-7146.014,-7077.8716,-7067.9634,-7091.939,-7152.976,-7179.339,-7124.2197,-7114.0723,-7140.5947,-7158.177,-7143.3564,-7063.374,-7016.735,-7032.609,-7070.4834,-7114.692,-7105.9165,-7073.427,-7075.6436,-7100.5186,-7118.7817,-7123.297,-7115.0464,-7108.1304,-7136.6924,-7117.583,-7041.089,-7024.11,-7055.5347,-7088.8105,-7091.738,-7085.3584,-7091.162,-7082.063,-7088.823,-7115.266,-7148.9434,-7165.2256,-7169.3022,-7153.2344,-7110.6826,-7139.273,-7146.8506,-7070.3276,-7053.0483,-7092.635,-7085.987,-7029.202,-7044.568,-7128.9316,-7199.7915,-7220.765,-7155.3027,-7120.751,-7099.394,-7035.272,-7068.452,-7124.1523,-7142.694,-7171.066,-7136.1113,-7092.113,-7091.8936,-7082.3164,-7051.6133,-7040.308,-7065.226,-7084.652,-7133.5425,-7149.3047,-7075.723,-7051.279,-7097.436,-7154.003,-7143.176,-7093.603,-7123.468,-7152.104,-7141.1377,-7127.3013,-7110.788,-7096.7544,-7095.6396,-7137.709,-7122.08,-7060.825,-7062.6743,-7064.9297,-7069.208,-7087.899,-7112.316,-7159.991,-7169.733,-7132.966,-7102.069,-7100.322,-7128.63,-7159.3257,-7143.2007,-7120.0854,-7134.075,-7099.815,-7041.587,-7046.113,-7070.4697,-7078.5283,-7098.4644,-7149.9497,-7171.7007,-7137.086,-7127.504,-7140.155,-7129.503,-7155.669,-7204.849,-7189.7373,-7139.188,-7079.206,-7032.3604,-7051.6655,-7073.716,-7058.75,-7071.2744,-7086.336,-7075.623,-7089.054,-7091.416,-7084.8228,-7101.567,-7086.616,-7081.3047,-7126.6006,-7160.893,-7142.1157,-7109.5273,-7137.458,-7200.2,-7231.4644,-7187.731,-7102.4775,-7087.5713,-7129.0996,-7142.9756,-7122.1533,-7106.606,-7120.585,-7124.997,-7112.531,-7090.8105,-7060.321,-7085.711,-7133.021,-7129.8086,-7097.692,-7071.5347,-7072.3096,-7078.718,-7105.026,-7136.5146,-7131.7847,-7134.948,-7136.366,-7101.182,-7097.902,-7197.8433,-7270.475,-7229.702,-7192.393,-7168.661,-7163.548,-7154.512,-7102.9863,-7103.0386,-7108.215,-7097.741,-7116.2993,-7091.2524,-7078.963,-7121.377,-7136.3647,-7147.898,-7169.8994,-7149.315,-7129.7964,-7136.2026,-7136.282,-7153.3755,-7169.114,-7168.4663,-7149.0947,-7097.3223,-7103.8613,-7169.3667,-7186.374,-7162.528,-7118.907,-7089.525,-7112.105,-7103.7305,-7085.29,-7111.555,-7131.825,-7176.414,-7193.4946,-7151.3115,-7147.2495,-7156.8584,-7149.9834,-7140.115,-7133.3423,-7124.0537,-7118.0366,-7150.426,-7190.1123,-7214.351,-7169.381,-7082.4106,-7088.6445,-7116.7163,-7131.2197,-7164.6006,-7149.903,-7146.2944,-7167.819,-7157.1724,-7158.0317,-7162.4375,-7138.2505,-7105.8135,-7084.564,-7100.0806,-7142.3813,-7151.6157,-7150.8535,-7168.029,-7151.549,-7115.4536,-7090.5356,-7108.4683,-7169.6284,-7188.6846,-7155.5723,-7125.9165,-7171.1997,-7267.229,-7264.4785,-7154.019,-7064.4624,-7087.3735,-7163.442,-7176.547,-7181.165,-7226.4805,-7227.9976,-7172.281,-7133.238,-7144.87,-7172.682,-7191.5605,-7207.715,-7170.464,-7092.2446,-7093.5396,-7143.9336,-7148.787,-7136.002,-7124.85,-7115.149,-7114.195,-7106.4688,-7117.2407,-7162.9355,-7176.583,-7134.639,-7105.521,-7124.105,-7154.04,-7151.786,-7140.713,-7168.0054,-7216.1963,-7250.235,-7254.124,-7214.7573,-7169.256,-7157.6313,-7148.1836,-7133.2925,-7138.591,-7169.3887,-7182.4355,-7159.502,-7159.7236,-7150.752,-7137.3687,-7159.5654,-7159.445,-7165.099,-7173.101,-7175.94,-7226.7217,-7255.5864,-7209.6084,-7139.9395,-7100.7495,-7082.415,-7079.349,-7099.6675,-7116.549,-7135.82,-7155.629,-7197.617,-7225.384,-7170.349,-7115.6567
-7097.0205,-7104.398,-7124.7983,-7103.885,-7100.395,-7124.4253,-7117.5703,-7116.9487,-7114.6187,-7107.5806,-7125.631,-7133.418,-7146.694,-7158.706,-7143.5884,-7148.171,-7191.341,-7253.1475,-7257.863,-7200.9917,-7173.7446,-7177.563,-7171.93,-7163.532,-7185.848,-7204.9736,-7166.2964,-7109.6523,-7096.6665,-7129.597,-7153.921,-7141.1216,-7125.499,-7135.834,-7147.833,-7158.0547,-7199.0464,-7222.2373,-7200.3413,-7183.4688,-7178.824,-7176.492,-7145.589,-7096.663,-7088.2827,-7106.542,-7170.576,-7220.046,-7162.49,-7153.7983,-7216.1167,-7210.389,-7189.791,-7175.094,-7118.852,-7086.0947,-7117.66,-7134.553,-7115.0166,-7121.394,-7153.8105,-7170.518,-7161.8994,-7158.02,-7153.114,-7128.421,-7115.0986,-7130.95,-7154.6465,-7165.5156,-7182.2783,-7191.07,-7160.2925,-7140.1997,-7137.6396,-7097.614,-7059.877,-7105.461,-7222.2744,-7301.2163,-7287.224,-7225.009,-7148.5776,-7124.796,-7128.744,-7100.6924,-7117.8545,-7127.6147,-7123.494,-7156.5435,-7159.238,-7177.7007,-7191.388,-7190.7964,-7233.5537,-7258.642,-7213.3486,-7132.518,-7149.997,-7192.437,-7160.509,-7141.422,-7112.2456,-7097.127,-7113.8325,-7139.623,-7173.5786,-7191.9224,-7223.6084,-7226.126,-7213.948,-7214.9497,-7176.0796,-7130.7656,-7111.705,-7119.129,-7128.781,-7151.6143,-7180.7227,-7158.6733,-7117.642,-7101.8174,-7143.9097,-7208.7114,-7242.94,-7239.964,-7185.1763,-7175.316,-7213.584,-7203.363,-7183.227,-7157.6587,-7130.6494,-7124.503,-7095.754,-7097.1143,-7139.7754,-7132.8833,-7120.7476,-7141.788,-7169.8975,-7200.1396,-7176.235,-7124.109,-7111.03,-7109.0903,-7124.4976,-7180.0693,-7232.0947,-7260.7603,-7270.7266,-7234.538,-7219.296,-7261.9683,-7231.93,-7141.761,-7119.5522,-7137.602,-7136.4424,-7150.7476,-7182.312,-7206.688,-7226.959,-7219.355,-7200.0693,-7173.9907,-7155.4375,-7166.2686,-7147.9194,-7159.8203,-7208.1274,-7186.958,-7162.1973,-7176.7524,-7202.132,-7226.343,-7208.331,-7173.3857,-7153.306,-7176.939,-7223.978,-7194.699,-7152.591,-7140.6577,-7127.037,-7155.7896,-7170.0337,-7171.1035,-7172.648,-7145.722,-7160.4487,-7171.5503,-7167.5576,-7184.57,-7181.188,-7195.387,-7217.995,-7221.4907,-7211.2305,-7176.2744,-7165.755,-7208.026,-7254.7124,-7238.3223,-7185.186,-7176.047,-7202.4346,-7212.687,-7225.431,-7261.425,-7219.005,-7137.489,-7153.8325,-7196.975,-7209.341,-7196.455,-7187.9824,-7227.7534,-7252.756,-7217.376,-7160.056,-7140.188,-7148.7827,-7162.899,-7175.4243,-7172.6943,-7186.36,-7183.1685,-7174.5923,-7219.803,-7257.5957,-7237.255,-7193.322,-7189.297,-7194.942,-7164.057,-7148.5312,-7162.6333,-7172.476,-7174.091,-7202.168,-7238.36,-7232.656,-7205.9614,-7204.728,-7247.286,-7267.459,-7249.059,-7249.8955,-7239.8564,-7204.804,-7157.7324,-7155.0938,-7262.227,-7345.559,-7296.9766,-7238.8364,-7228.2144,-7187.9824,-7167.636,-7181.089,-7155.856,-7150.679,-7158.862,-7157.9604,-7171.27,-7164.611,-7171.432,-7182.757,-7195.646,-7233.9253,-7223.506,-7185.051,-7200.674,-7222.0415,-7177.771,-7151.3804,-7185.5,-7211.4,-7247.851,-7285.1606,-7302.067,-7301.7905,-7295.396,-7323.7637,-7322.675,-7276.4067,-7234.926,-7196.0225,-7174.89,-7167.305,-7179.347,-7197.223,-7192.657,-7186.0107,-7172.4683,-7165.903,-7196.6084,-7227.313,-7243.9995,-7272.5317,-7246.182,-7189.687,-7236.25,-7296.037,-7279.884,-7242.674,-7238.9263,-7296.5337,-7307.4336,-7264.782,-7230.4497,-7177.169,-7191.541,-7279.8325,-7306.689,-7247.158,-7200.0474,-7185.012,-7151.359,-7139.9517,-7171.5127,-7221.7227,-7234.2207,-7209.532,-7224.2856,-7231.984,-7211.763,-7208.212,-7238.9697,-7298.281,-7286.514,-7213.8086,-7209.6133,-7247.7905,-7233.7515,-7230.919,-7317.9053,-7344.218,-7243.049,-7183.045,-7191.135,-7205.7627,-7205.9624,-7179.349,-7183.9473,-7206.8223,-7204.305,-7207.216,-7215.653,-7223.2534,-7224.855,-7225.1836,-7236.004,-7221.928,-7213.184,-7269.3984,-7343.554,-7345.5103,-7248.3447,-7159.4053,-7142.852,-7150.8286,-7209.5757,-7261.102,-7222.949,-7201.1504,-7207.47,-7184.4746,-7181.7783,-7193.07,-7205.81,-7235.2114,-7249.0303,-7235.796,-7231.0815,-7278.4683,-7312.3745,-7278.7544,-7249.539,-7211.6284,-7160.546,-7158.6997,-7214.938,-7317.948,-7383.0947,-7361.6772,-7325.9688,-7307.9688,-7291.001,-7262.2227,-7202.9814,-7184.196,-7248.672,-7280.933,-7267.375,-7279.6836,-7310.573,-7289.033,-7220.677,-7230.466,-7257.878,-7241.7417,-7250.7705,-7243.0767,-7219.235,-7204.5356,-7196.6313,-7211.525,-7220.7593,-7209.086,-7198.1113,-7224.1255,-7254.195,-7242.9805,-7239.3496,-7244.594,-7235.53,-7243.8857,-7267.4927,-7309.1333,-7357.149,-7346.1714,-7331.3174,-7381.376,-7389.38,-7299.685,-7213.276,-7210.5166,-7243.203,-7241.093,-7231.227,-7248.192,-7281.128,-7296.3384,-7253.8696,-7181.2993,-7189.723,-7275.475,-7306.2803,-7270.588,-7239.8447,-7261.286,-7278.563,-7237.203,-7226.3613,-7244.8164,-7278.492,-7319.411,-7315.8237,-7313.9385,-7303.9243,-7323.0435,-7364.46,-7317.8584,-7279.548,-7306.025,-7299.326,-7233.7993,-7209.045,-7253.2563,-7273.298,-7286.425,-7282.1216,-7241.7354,-7248.1426,-7274.0254,-7274.3335,-7260.0156,-7224.6147,-7207.596,-7221.655,-7238.2573,-7259.3457,-7264.709,-7230.126,-7190.4404,-7224.896,-7285.289,-7271.9946,-7258.966,-7254.447,-7242.159,-7279.892,-7296.5786,-7292.795,-7294.8506,-7279.671,-7279.1304,-7250.644,-7245.5127,-7287.228,-7273.6504,-7254.511,-7257.128,-7247.067,-7222.818,-7203.2144,-7225.231,-7240.8633,-7226.1685,-7221.4834,-7258.933,-7300.383,-7264.5195,-7222.0005,-7230.9546,-7238.1187,-7233.383,-7225.15,-7241.945,-7261.7124,-7264.939,-7288.0615,-7304.1377,-7296.148,-7273.529,-7294.5703,-7365.5703,-7378.0615,-7339.142,-7312.724,-7318.779,-7311.7734,-7256.36,-7228.992,-7245.8535,-7268.688,-7261.251,-7220.3457,-7228.069,-7269.7866,-7270.1943,-7251.8853,-7230.878,-7223.037,-7246.9653,-7261.4854,-7265.1997,-7249.3535,-7224.2397,-7248.6807,-7271.8535,-7263.707,-7268.4385,-7266.212,-7255.624,-7272.81,-7280.813,-7263.333,-7245.853,-7237.8315,-7277.86,-7310.4707,-7299.6753,-7291.744,-7270.1133,-7261.5815,-7272.22,-7269.528,-7247.52,-7235.396,-7259.4126,-7263.955,-7264.693,-7281.62,-7280.2373,-7282.6377,-7315.645,-7367.643,-7367.8174,-7313.0474,-7272.6665,-7262.204,-7283.1167,-7301.842,-7287.168,-7301.508,-7323.73,-7247.197,-7186.5356,-7236.1104,-7262.0923,-7250.34,-7243.9585,-7236.6978,-7254.579,-7262.5337,-7262.986,-7278.341,-7266.213,-7249.9067,-7239.1475,-7223.625,-7266.7227,-7335.3945,-7343.4194,-7315.2197,-7287.0664,-7266.6313,-7254.0405,-7230.915,-7230.5854,-7288.4023,-7344.3257,-7362.149,-7336.713,-7259.845,-7233.3403,-7292.106,-7295.085,-7231.232,-7221.482,-7251.7085,-7259.5615,-7245.5586,-7239.96,-7260.3726,-7259.3906,-7240.7485,-7231.7856,-7221.4707,-7233.3887,-7241.084,-7223.3794,-7238.287,-7295.0327,-7353.7476,-7356.025,-7286.3857,-7268.243,-7302.614,-7284.723,-7285.9536,-7296.2505,-7271.385,-7260.8594,-7247.567,-7251.612,-7238.3247,-7219.7715,-7267.5293,-7321.258,-7375.7344,-7351.1323,-7240.989,-7231.5786,-7258.3125,-7221.702,-7216.4556,-7275.4136,-7325.726,-7310.1597,-7250.765,-7215.0835,-7241.7256,-7271.998,-7282.0034,-7301.896,-7286.8384,-7272.295,-7308.274,-7330.1143,-7316.1606,-7285.7686,-7270.1514,-7282.797,-7297.5215,-7331.093,-7375.5083,-7345.521,-7246.484,-7205.1655,-7242.235,-7311.5996,-7390.7773,-7430.581,-7449.5825,-7392.092,-7253.497,-7236.953,-7295.54,-7300.01,-7290.4854,-7246.3457,-7238.5195,-7299.606,-7330.4253,-7320.971,-7286.7437,-7291.3574,-7315.507,-7275.576,-7231.4614,-7241.077,-7286.9624,-7290.594,-7268.088,-7275.398,-7265.7485,-7275.9644,-7312.538,-7309.834,-7270.0522,-7248.1387,-7279.1133,-7293.9297,-7276.9985,-7272.311,-7263.3096,-7270.009,-7318.75,-7359.718,-7340.755,-7297.8965,-7274.969,-7278.4297,-7344.709,-7424.307,-7410.569,-7296.222,-7221.8394,-7306.205,-7361.9023,-7299.1123,-7265.4766,-7255.5884,-7272.2676,-7298.682,-7287.0273,-7276.6846,-7269.2896,-7284.308,-7297.471,-7295.8813,-7303.3833,-7296.904,-7311.8193,-7336.0117,-7329.809,-7321.5205,-7333.6484,-7325.7705,-7260.9653,-7224.924,-7264.0786,-7313.432,-7304.8687,-7267.826,-7270.9434,-7272.14,-7294.735,-7367.761,-7400.62,-7343.2603,-7244.307,-7220.5645,-7248.995,-7263.8975,-7310.3853,-7352.5845,-7323.13,-7251.371,-7247.5366,-7301.429,-7334.8257,-7376.2153,-7381.908,-7340.437,-7314.5874,-7308.065,-7303.096,-7307.7314,-7351.227,-7336.0127,-7290.8223,-7318.7686,-7289.272,-7234.4985,-7233.587,-7237.676,-7260.669,-7263.3506,-7265.9214,-7279.228,-7260.61,-7257.5513,-7314.457,-7415.204,-7456.6846,-7416.231,-7349.0264,-7293.6367,-7291.8022,-7297.7925,-7294.367,-7288.0684,-7276.5327,-7280.2534,-7283.3867,-7302.5474,-7325.41,-7329.706,-7327.923,-7311.646,-7313.383,-7319.2783,-7300.77,-7287.6787,-7267.232,-7248.706,-7265.031,-7318.0117,-7357.853,-7370.355,-7419.7383,-7438.8335,-7390.6978,-7330.3975,-7272.9614,-7290.3184,-7335.493,-7327.7173,-7303.341,-7289.763,-7301.148,-7315.329,-7348.985,-7367.9575,-7335.7773,-7331.994,-7326.7964,-7296.2188,-7294.6626,-7313.3906,-7302.4604,-7303.17,-7368.241,-7352.1533,-7312.5874,-7351.6157,-7304.451,-7279.985,-7322.2485,-7293.107,-7291.873,-7303.171,-7285.7754,-7282.2993,-7283.2993,-7304.7227,-7303.323,-7285.0693,-7276.8813,-7243.9106,-7226.846,-7262.221,-7295.738,-7304.431,-7333.8413,-7367.6694,-7388.7183,-7395.364,-7359.3184,-7332.7563,-7342.6567,-7337.8843,-7313.5586,-7302.758,-7292.022,-7268.4546,-7269.458,-7296.6816,-7329.422,-7346.588,-7329.392,-7310.306,-7314.393,-7320.1943,-7349.308,-7403.688,-7409.948,-7393.406,-7395.6445,-7369.547,-7309.4946,-7279.385,-7300.929,-7315.0254,-7331.5273,-7342.8813,-7328.4893,-7321.68,-7290.6533,-7279.737,-7285.923,-7270.974,-7301.9346,-7331.3315,-7329.9854,-7331.5166,-7338.416,-7367.042,-7394.6533,-7389.2407,-7348.765,-7317.182,-7316.395,-7320.3057,-7354.9946,-7398.611,-7346.67,-7276.378,-7307.868,-7341.1514,-7336.7256,-7351.7773,-7369.051,-7359.893,-7335.275,-7331.4707,-7311.482,-7254.2583,-7249.346,-7331.6196,-7386.1665,-7359.7607,-7349.5186,-7356.532,-7355.232,-7357.2734,-7348.1143,-7356.356,-7342.352,-7316.549,-7339.03,-7335.7334,-7319.1562,-7331.1133,-7339.3457,-7361.3647,-7351.4365,-7317.6465,-7322.417,-7326.517,-7337.9053,-7324.354,-7285.6006,-7307.5034,-7362.484,-7413.2603,-7407.1987,-7375.747,-7374.603,-7339.8076,-7318.3965,-7311.089,-7305.299,-7335.961,-7331.82,-7314.6113,-7301.6284,-7296.596,-7322.3257,-7325.1743,-7343.1274,-7370.7,-7352.113,-7369.978,-7435.765,-7413.6924,-7305.3345,-7262.451,-7310.4385,-7370.3833,-7397.6797,-7394.5986,-7385.912,-7373.392,-7360.0576,-7342.7476,-7318.4707,-7327.47,-7363.948,-7381.657,-7384.115,-7358.679,-7317.8037,-7309.43,-7301.4224,-7294.8174,-7323.7397,-7347.6533,-7346.5884,-7355.0786,-7390.5093,-7422.266,-7428.3027,-7367.3135,-7270.544,-7283.692,-7342.8286,-7371.304,-7438.715,-7460.254,-7394.4736,-7328.1343,-7308.874,-7347.6606,-7427.9575,-7480.2515,-7410.576,-7313.4907,-7282.6875,-7276.0337,-7317.902,-7332.948,-7316.8413,-7372.886,-7401.4575,-7385.009,-7369.771,-7333.179,-7336.4023,-7389.1167,-7460.3003,-7500.383,-7473.426,-7426.474,-7379.251,-7346.87,-7318.471,-7304.021,-7319.4727,-7305.502,-7292.3,-7311.912,-7330.1646,-7345.2163,-7363.227,-7389.4316,-7377.4434,-7350.853,-7386.2856,-7400.7944,-7356.0176,-7299.516,-7245.9917,-7271.791,-7328.6685,-7330.821,-7366.4565,-7428.9565,-7448.3613,-7454.4775,-7448.29,-7425.183,-7415.2437,-7377.793,-7337.6963,-7332.5356,-7293.594,-7302.7534,-7340.059,-7338.0,-7383.7275,-7361.748,-7309.922,-7335.771,-7333.4663,-7336.839,-7351.7114,-7385.806,-7448.088,-7454.161,-7444.104,-7400.8887,-7319.6313,-7314.519,-7347.302,-7341.812,-7323.2246,-7329.372,-7384.3,-7408.085,-7349.4277,-7335.053,-7398.639,-7460.6064,-7481.714,-7423.134,-7349.5166,-7332.0347,-7306.0293,-7299.869,-7364.1426,-7421.4565,-7421.9243,-7361.41,-7346.464,-7420.739,-7441.949,-7417.677,-7390.7446,-7343.371,-7332.021,-7341.9707,-7330.9688,-7330.944,-7350.4067,-7350.0107,-7342.0146,-7354.008,-7376.6084,-7398.5254,-7380.0933,-7362.732,-7417.446,-7449.372,-7414.449,-7400.5273,-7377.812,-7335.7886,-7337.4346,-7337.857,-7340.943,-7358.2085,-7355.292,-7365.3325,-7379.422,-7383.497,-7366.142,-7332.2715,-7341.267,-7381.0117,-7442.035,-7502.792,-7483.1665,-7414.053,-7378.46,-7369.1426,-7351.5796,-7353.526,-7390.007,-7389.342,-7361.343,-7357.277,-7343.844,-7335.5005,-7343.166,-7351.4683,-7352.1724,-7344.4517,-7376.4346,-7410.652,-7385.919,-7345.1323,-7336.092,-7344.072,-7350.4424,-7360.5537,-7364.9893,-7383.447,-7417.1426,-7421.6597,-7383.494,-7363.3696,-7402.815,-7421.1475,-7395.1704,-7353.295,-7310.872,-7318.2666,-7341.9365,-7353.848,-7385.699,-7424.834,-7434.3164,-7391.291,-7329.0835,-7318.68,-7380.415,-7425.0806,-7403.015,-7394.9917,-7421.0767,-7422.829,-7394.9575,-7383.4565,-7379.522,-7364.157,-7377.597,-7375.179,-7341.6836,-7340.645,-7333.0806,-7319.94,-7347.102,-7372.5854,-7363.48
-7338.258,-7336.0684,-7378.846,-7426.7446,-7448.6426,-7436.168,-7377.9253,-7359.1094,-7385.247,-7373.62,-7374.4995,-7389.1724,-7397.328,-7410.9424,-7423.919,-7443.508,-7405.54,-7358.9307,-7368.0884,-7369.207,-7391.518,-7436.303,-7425.7524,-7382.2354,-7383.4478,-7397.232,-7382.743,-7379.917,-7377.555,-7382.206,-7396.739,-7396.318,-7409.126,-7401.0107,-7358.365,-7407.7085,-7522.257,-7516.1426,-7438.3657,-7404.46,-7413.536,-7423.733,-7362.1377,-7317.2314,-7329.521,-7338.1533,-7367.1387,-7382.2935,-7390.5547,-7409.589,-7426.4663,-7454.303,-7453.0796,-7406.039,-7344.6016,-7326.637,-7349.308,-7353.1655,-7354.54,-7394.8574,-7435.6294,-7431.6753,-7418.007,-7392.474,-7377.206,-7403.678,-7396.57,-7358.7524,-7357.942,-7398.7163,-7431.3306,-7422.3335,-7407.9287,-7423.324,-7433.0205,-7393.455,-7362.246,-7375.8623,-7389.247,-7376.2134,-7372.7793,-7412.247,-7428.0176,-7424.204,-7455.453,-7482.3013,-7462.645,-7412.2954,-7406.406,-7443.2144,-7472.3687,-7443.248,-7376.093,-7388.4717,-7406.0645,-7428.766,-7492.4507,-7473.637,-7449.6978,-7391.913,-7319.127,-7374.8936,-7396.741,-7401.8574,-7439.1147,-7421.3506,-7409.9487,-7386.765,-7391.0254,-7418.983,-7404.8794,-7398.9062,-7370.1367,-7365.4624,-7409.445,-7419.016,-7405.7246,-7392.4316,-7405.125,-7425.9927,-7438.068,-7442.2637,-7405.3975,-7394.4653,-7424.6147,-7431.782,-7437.0654,-7433.3115,-7420.373,-7431.797,-7436.3115,-7416.3037,-7399.5977,-7409.367,-7424.326,-7419.761,-7429.254,-7450.2866,-7442.206,-7446.1753,-7482.6514,-7462.68,-7416.9194,-7420.564,-7411.333,-7422.2,-7462.0625,-7452.061,-7432.73,-7416.172,-7407.7056,-7403.6987,-7386.582,-7402.185,-7411.5474,-7423.6206,-7498.661,-7582.489,-7558.7773,-7424.2656,-7383.2305,-7425.2925,-7393.4624,-7386.939,-7426.5283,-7442.776,-7457.6,-7450.453,-7450.3623,-7456.361,-7440.328,-7456.966,-7463.483,-7435.336,-7446.345,-7489.4966,-7483.4653,-7420.1094,-7375.6284,-7365.078,-7380.5493,-7402.2163,-7409.297,-7416.41,-7429.609,-7471.09,-7489.021,-7471.165,-7497.18,-7557.4717,-7572.354,-7471.523,-7373.943,-7387.9507,-7400.8887,-7382.084,-7366.1665,-7378.7334,-7435.1333,-7456.2437,-7444.3745,-7468.7227,-7511.284,-7537.019,-7518.0024,-7456.889,-7417.5547,-7416.4717,-7413.78,-7406.3906,-7413.446,-7419.7607,-7412.0605,-7420.168,-7444.0376,-7438.6987,-7435.4395,-7480.6104,-7492.407,-7472.7266,-7470.9976,-7419.311,-7390.609,-7435.4775,-7455.021,-7430.98,-7409.697,-7443.524,-7464.3867,-7445.0127,-7447.472,-7439.4204,-7432.806,-7436.17,-7460.4756,-7490.2085,-7460.038,-7430.751,-7433.7495,-7427.983,-7424.84,-7463.0596,-7493.478,-7499.379,-7540.2964,-7533.753,-7486.059,-7477.513,-7476.9307,-7474.9775,-7462.4385,-7440.7754,-7418.9805,-7423.3086,-7434.655,-7414.9795,-7423.4077,-7440.6265,-7433.4736,-7445.299,-7468.232,-7463.4536,-7450.227,-7467.922,-7459.9863,-7431.3696,-7437.7217,-7433.2065,-7444.1655,-7487.1133,-7523.3013,-7551.1924,-7519.844,-7502.9614,-7536.503,-7492.0,-7441.0327,-7432.3926,-7412.2974,-7429.3247,-7442.9717,-7427.0513,-7435.159,-7440.0522,-7419.281,-7402.8457,-7412.8667,-7440.299,-7445.67,-7440.63,-7459.116,-7467.816,-7469.2935,-7469.517,-7449.113,-7435.585,-7447.9795,-7473.369,-7466.8,-7458.159,-7469.9233,-7439.658,-7420.43,-7459.2495,-7495.7334,-7486.935,-7470.003,-7495.4185,-7503.41,-7474.373,-7479.5537,-7505.6367,-7499.6895,-7475.117,-7450.551,-7425.887,-7412.8906,-7397.273,-7379.3076,-7405.27,-7474.597,-7517.5713,-7510.6504,-7496.821,-7489.7314,-7479.202,-7462.8867,-7468.2783,-7496.954,-7497.647,-7481.3184,-7470.903,-7466.3467,-7470.0527,-7453.975,-7442.7236,-7469.7104,-7494.6465,-7488.193,-7467.276,-7457.0767,-7464.868,-7485.581,-7488.6665,-7464.8994,-7446.2563,-7429.07,-7429.4966,-7450.9585,-7458.752,-7464.907,-7463.357,-7486.9355,-7539.039,-7538.708,-7520.2466,-7522.0444,-7535.713,-7540.7617,-7509.347,-7477.0547,-7434.5757,-7414.2637,-7428.2944,-7420.135,-7431.3423,-7445.3613,-7458.143,-7478.3027,-7485.2085,-7522.4116,-7551.7812,-7570.5054,-7530.4634,-7431.622,-7466.2104,-7527.1953,-7484.9893,-7477.8174,-7500.6006,-7484.116,-7462.253,-7460.2656,-7464.8906,-7482.0967,-7497.482,-7490.179,-7494.3066,-7499.446,-7493.601,-7496.221,-7496.321,-7495.8594,-7496.581,-7506.7764,-7521.34,-7525.6626,-7562.717,-7610.661,-7594.542,-7535.7896,-7504.5747,-7537.237,-7548.61,-7491.397,-7491.3433,-7531.339,-7531.568,-7544.074,-7552.7104,-7538.21,-7511.9556,-7484.263,-7492.8257,-7509.719,-7521.612,-7535.226,-7553.4663,-7582.687,-7560.4336,-7514.741,-7549.5654,-7629.799,-7657.439,-7605.3965,-7538.2563,-7543.6367,-7573.6987,-7541.917,-7507.4736,-7503.827,-7491.4272,-7483.566,-7482.169,-7473.116,-7506.849,-7595.139,-7603.721,-7539.4175,-7529.852,-7526.108,-7526.0303,-7546.2344,-7535.6147,-7536.406,-7541.633,-7523.8105,-7504.772,-7491.896,-7510.243,-7562.751,-7596.5474,-7574.8066,-7541.5586,-7526.0596,-7517.4604,-7524.655,-7536.941,-7547.8135,-7556.8867,-7559.57,-7566.295,-7575.131,-7580.416,-7569.382,-7553.973,-7581.5205,-7613.438,-7602.3945,-7616.0254,-7636.7534,-7573.2236,-7505.3228,-7523.366,-7554.655,-7555.585,-7548.9634,-7538.189,-7544.0425,-7532.856,-7500.7593,-7512.2583,-7516.525,-7510.159,-7528.5415,-7528.1777,-7524.222,-7518.9604,-7512.173,-7519.488,-7531.4224,-7540.8804,-7533.172,-7533.394,-7540.31,-7559.654,-7618.5312,-7684.6826,-7699.556,-7609.196,-7529.7134,-7551.2744,-7576.965,-7594.371,-7585.0645,-7553.223,-7558.958,-7562.305,-7569.5913,-7576.9585,-7551.9785,-7543.2056,-7558.565,-7560.5957,-7550.161,-7549.417,-7555.476,-7567.098,-7556.0117,-7527.985,-7552.6763,-7560.019,-7529.2837,-7546.795,-7570.146,-7575.0195,-7580.305,-7603.1523,-7634.988,-7627.274,-7600.247,-7555.592,-7523.858,-7550.9917,-7569.006,-7566.267,-7581.367,-7595.7227,-7604.3325,-7624.463,-7658.96,-7671.2036,-7627.756,-7583.6113,-7582.923,-7584.4863,-7563.953,-7527.869,-7508.8306,-7538.616,-7586.3423,-7593.9023,-7579.0093,-7594.1455,-7592.4653,-7574.999,-7597.1475,-7617.3955,-7607.2676,-7597.573,-7600.243,-7587.5674,-7586.7686,-7625.5723,-7652.3247,-7629.936,-7567.8633,-7535.4185,-7546.1465,-7586.303,-7637.753,-7620.7603,-7606.5435,-7630.381,-7607.1294,-7592.4634,-7613.265,-7628.434,-7662.219,-7683.7466,-7628.1973,-7562.473,-7552.077,-7588.9478,-7666.0396,-7677.1416,-7608.6694,-7596.426,-7638.863,-7672.933,-7677.274,-7659.4976,-7644.9346,-7634.004,-7648.042,-7652.36,-7601.9165,-7569.153,-7569.4146,-7565.059,-7584.286,-7621.2734,-7649.917,-7665.8896,-7662.4165,-7662.654,-7669.8994,-7649.8374,-7631.3994,-7646.2354,-7659.6167,-7676.8125,-7696.798,-7681.2383,-7651.481,-7636.7993,-7628.0024,-7611.1787,-7602.3677,-7619.314,-7642.979,-7641.777,-7617.3325,-7616.2246,-7639.9136,-7656.9185,-7647.663,-7635.3496,-7663.7456,-7673.4497,-7638.5566,-7602.389,-7595.6167,-7643.1274,-7684.2896,-7694.9097,-7696.7676,-7687.3823,-7682.417,-7650.3896,-7604.4917,-7608.8975,-7651.1807,-7670.7036,-7641.927,-7627.2153,-7657.7495,-7683.1973,-7705.322,-7723.0254,-7685.6743,-7623.0312,-7614.5464,-7643.7915,-7635.9336,-7617.232,-7620.1626,-7629.4556,-7668.0977,-7679.98,-7646.4663,-7631.8984,-7636.0073,-7647.679,-7643.556,-7628.0254,-7619.603,-7634.5747,-7661.224,-7642.389,-7627.467,-7633.634,-7632.825,-7680.367,-7733.4775,-7710.88,-7658.356,-7646.1245,-7651.4316,-7634.3486,-7630.871,-7656.9736,-7664.2744,-7643.5063,-7660.304,-7711.2007,-7709.6323,-7700.192,-7713.5913,-7658.107,-7620.5913,-7658.588,-7656.602,-7637.8193,-7633.717,-7640.947,-7657.0312,-7648.064,-7658.4336,-7663.3667,-7651.4805,-7657.5835,-7647.877,-7644.378,-7644.4023,-7638.159,-7640.0093,-7636.4155,-7639.602,-7647.1543,-7654.921,-7658.8257,-7673.221,-7701.1143,-7686.2783,-7650.744,-7640.7373,-7662.8853,-7748.581,-7816.9688,-7767.9053,-7689.2607,-7664.8086,-7656.9346,-7633.771,-7628.838,-7653.3047,-7664.588,-7659.1865,-7659.4243,-7681.3447,-7686.4497,-7673.381,-7686.416,-7680.1206,-7673.7563,-7665.5767,-7639.8823,-7657.9805,-7673.229,-7674.0127,-7685.506,-7711.0005,-7750.918,-7752.0215,-7732.3804,-7713.686,-7697.933,-7722.3296,-7784.0317,-7811.978,-7750.14,-7679.3745,-7642.6274,-7613.966,-7628.3135,-7664.154,-7696.096,-7706.7837,-7694.491,-7702.651,-7690.248,-7681.228,-7701.3047,-7698.316,-7699.002,-7698.6006,-7696.087,-7688.466,-7680.7046,-7704.057,-7719.17,-7755.3247,-7783.6035,-7753.6895,-7727.005,-7706.781,-7719.8105,-7745.45,-7729.2427,-7712.537,-7715.333,-7743.3022,-7768.383,-7767.3447,-7761.065,-7775.641,-7811.724,-7800.3306,-7746.671,-7716.0503,-7727.659,-7745.746,-7716.948,-7711.5586,-7741.1714,-7718.3096,-7707.4683,-7733.7095,-7724.219,-7718.459,-7747.9897,-7765.9062,-7749.698,-7727.2095,-7725.391,-7722.04,-7723.6997,-7732.5757,-7727.2935,-7745.285,-7766.9673,-7747.1025,-7732.965,-7749.803,-7754.5977,-7757.3096,-7777.4395,-7771.2036,-7773.575,-7786.298,-7756.6157,-7737.0054,-7729.401,-7728.0835,-7748.3,-7745.653,-7730.1904,-7715.995,-7709.5273,-7721.1694,-7716.345,-7713.073,-7727.353,-7726.79,-7725.791,-7716.21,-7697.3145,-7705.2446,-7707.0596,-7692.0244,-7684.186,-7683.764,-7702.936,-7730.864,-7737.682,-7720.558,-7715.743,-7736.525,-7765.0264,-7797.5474,-7790.4624,-7746.743,-7737.5767,-7736.759,-7732.0996,-7741.5615,-7715.759,-7692.6323,-7696.85,-7719.0146,-7775.5786,-7771.1,-7723.456,-7711.493,-7702.5566,-7701.429,-7682.055,-7657.49,-7653.624,-7652.747,-7684.0386,-7713.9336,-7733.6143,-7747.797,-7733.5654,-7729.7764,-7736.6895,-7732.985,-7709.89,-7682.108,-7666.683,-7658.129,-7692.29,-7753.067,-7761.219,-7715.1367,-7688.448,-7699.4883,-7717.3916,-7733.1636,-7737.6626,-7734.8833,-7716.307,-7715.809,-7767.472,-7787.4536,-7764.906,-7751.5522,-7745.3877,-7734.0894,-7684.826,-7661.8813,-7708.178,-7717.3667,-7692.4204,-7678.928,-7655.127,-7667.124,-7689.407,-7672.012,-7675.158,-7687.819,-7685.598,-7685.9526,-7685.1587,-7692.45,-7697.9146,-7718.711,-7743.795,-7733.567,-7717.057,-7708.9536,-7710.32,-7722.25,-7739.1133,-7736.853,-7699.6245,-7684.6235,-7696.5044,-7683.3833,-7669.776,-7686.4077,-7716.107,-7764.7007,-7805.4297,-7795.782,-7760.0376,-7735.5225,-7742.687,-7724.3174,-7673.3315,-7674.0483,-7696.689,-7697.6514,-7693.1895,-7696.603,-7718.2373,-7750.726,-7764.597,-7734.212,-7700.3438,-7704.907,-7711.168,-7695.066,-7700.862,-7713.4775,-7701.7993,-7706.2397,-7707.741,-7712.2056,-7728.491,-7705.5327,-7685.0767,-7682.654,-7688.078,-7728.4497,-7756.3823,-7742.328,-7727.604,-7741.767,-7757.544,-7744.642,-7727.872,-7717.724,-7728.099,-7776.7534,-7780.6704,-7708.327,-7686.2886,-7768.3467,-7847.007,-7807.405,-7716.5576,-7724.465,-7771.1426,-7757.298,-7718.863,-7687.279,-7698.763,-7726.106,-7708.024,-7696.7095,-7704.8267,-7709.255,-7727.8125,-7733.5596,-7732.7095,-7739.623,-7729.0244,-7723.552,-7736.0156,-7744.1157,-7732.63,-7728.869,-7765.9795,-7791.896,-7784.341,-7776.701,-7767.906,-7744.1284,-7706.3594,-7702.6147,-7726.948,-7726.319,-7718.4526,-7721.2773,-7748.138,-7785.015,-7791.3086,-7786.7056,-7770.367,-7745.826,-7750.6177,-7742.6533,-7718.236,-7728.07,-7745.2554,-7761.9497,-7770.1665,-7770.4287,-7816.1685,-7846.508,-7788.7017,-7719.321,-7736.4175,-7795.863,-7794.2344,-7774.2134,-7781.974,-7780.0957,-7773.211,-7757.146,-7740.28,-7744.527,-7726.0234,-7699.5845,-7713.4834,-7729.951,-7746.0483,-7764.054,-7756.7207,-7744.3438,-7734.2373,-7728.842,-7724.705,-7725.356,-7739.929,-7738.2876,-7727.4307,-7727.505,-7739.9023,-7755.756,-7746.962,-7742.7734,-7763.472,-7756.2305,-7738.2974,-7741.8555,-7746.0894,-7767.1924,-7777.2437,-7782.7856,-7820.1006,-7821.7437,-7794.268,-7777.9404,-7759.3022,-7742.389,-7746.01,-7780.0864,-7774.012,-7728.8413,-7731.922,-7756.6694,-7764.8076,-7763.2954,-7756.9785,-7761.337,-7763.687,-7751.3213,-7737.7554,-7728.405,-7728.9004,-7731.732,-7720.9414,-7721.364,-7732.4824,-7730.709,-7748.312,-7772.7197,-7784.5,-7805.562,-7802.7534,-7785.019,-7764.1763,-7742.3022,-7761.3613,-7769.404,-7771.9478,-7804.31,-7813.901,-7801.917,-7766.9917,-7742.845,-7738.1846,-7719.665,-7722.7524,-7725.9844,-7746.3545,-7782.685,-7787.133,-7804.527,-7800.8037,-7762.904,-7757.375,-7772.11,-7778.226,-7779.686,-7791.145,-7806.2886,-7814.1245,-7792.5464,-7753.3174,-7752.027,-7746.603,-7707.6187,-7697.089,-7728.2036,-7773.429,-7790.8203,-7781.4414,-7785.1245,-7776.77,-7763.7007,-7766.468,-7759.439,-7762.08,-7772.537,-7776.1475,-7770.4253,-7767.4253,-7805.2764,-7849.571,-7857.0303,-7800.856,-7734.0933,-7733.6597,-7738.285,-7735.557,-7733.9717,-7738.636,-7759.578,-7758.9175,-7781.4688,-7802.9033,-7784.485,-7782.4346,-7806.957,-7849.546,-7863.9917,-7825.687,-7785.152,-7777.203,-7769.1865,-7745.7744,-7758.5547,-7780.796,-7778.374,-7784.8237,-7793.9644,-7807.6465,-7823.2764,-7796.6763,-7759.1187,-7769.3213,-7802.7344,-7825.926,-7811.2227,-7772.9478,-7781.2183,-7795.2793,-7766.1387,-7766.9385,-7793.6313,-7800.2603,-7822.681,-7854.463,-7858.1953,-7807.299
-7734.9565,-7732.6597,-7762.4297,-7762.1084,-7754.5273,-7758.5146,-7771.1494,-7778.925,-7821.6816,-7856.603,-7807.5664,-7765.424,-7761.452,-7766.973,-7797.1045,-7801.465,-7788.0127,-7798.473,-7815.1377,-7826.1763,-7819.231,-7820.0664,-7811.4424,-7773.3613,-7759.299,-7760.4673,-7775.5923,-7788.1626,-7778.579,-7789.1035,-7793.1333,-7773.3975,-7766.747,-7772.802,-7765.109,-7781.453,-7813.118,-7783.764,-7760.6,-7779.476,-7804.821,-7810.528,-7785.37,-7810.483,-7833.3613,-7790.714,-7756.702,-7747.5356,-7779.66,-7844.517,-7868.9136,-7839.9375,-7834.5483,-7852.035,-7812.288,-7752.0435,-7717.3228,-7721.3525,-7768.8755,-7788.926,-7781.1606,-7794.0737,-7808.741,-7809.8994,-7806.6587,-7803.2793,-7783.263,-7761.212,-7768.2144,-7782.6113,-7784.9272,-7765.3364,-7743.6167,-7759.2974,-7796.829,-7810.006,-7787.3706,-7783.6406,-7775.8613,-7747.251,-7774.0483,-7803.094,-7820.493,-7866.837,-7931.875,-8013.8755,-7996.3975,-7888.509,-7788.407,-7722.6284,-7736.4727,-7732.2456,-7712.684,-7749.748,-7765.9985,-7770.299,-7780.523,-7794.7793,-7802.8105,-7788.3477,-7789.3325,-7784.626,-7772.3174,-7767.3716,-7765.4575,-7764.4253,-7742.321,-7733.6255,-7758.0234,-7803.9385,-7830.234,-7798.584,-7781.641,-7807.9014,-7834.531,-7820.5503,-7783.07,-7810.858,-7860.0254,-7864.6636,-7845.201,-7805.7134,-7780.497,-7777.065,-7785.8716,-7798.283,-7810.122,-7838.71,-7829.9907,-7798.7573,-7780.004,-7744.2544,-7749.024,-7779.966,-7787.6265,-7804.225,-7812.1035,-7802.0273,-7791.445,-7792.7046,-7804.773,-7809.274,-7813.745,-7796.337,-7759.8833,-7757.936,-7783.3647,-7804.146,-7808.139,-7812.3184,-7832.137,-7838.6465,-7826.5615,-7802.9463,-7786.8994,-7821.785,-7877.2236,-7876.469,-7814.6245,-7802.3433,-7883.1646,-7934.5093,-7902.854,-7835.6294,-7776.809,-7754.813,-7757.516,-7761.7,-7759.015,-7762.959,-7777.1646,-7780.997,-7782.4126,-7797.6953,-7806.86,-7811.5693,-7817.1445,-7803.996,-7791.166,-7776.9453,-7763.316,-7764.0537,-7763.099,-7787.897,-7808.806,-7796.0913,-7803.214,-7814.505,-7807.8374,-7812.4907,-7839.353,-7847.6714,-7821.07,-7814.284,-7808.1187,-7784.1714,-7786.382,-7793.676,-7786.6826,-7775.0273,-7775.1396,-7792.964,-7796.308,-7792.0894,-7793.218,-7794.7354,-7801.072,-7805.1147,-7806.7085,-7802.2383,-7810.2554,-7825.7046,-7821.946,-7837.3047,-7852.7075,-7846.7437,-7881.9863,-7916.3706,-7876.9863,-7835.748,-7857.515,-7874.847,-7832.3667,-7792.2583,-7807.858,-7828.2505,-7815.4795,-7800.4424,-7804.105,-7816.674,-7821.2905,-7820.7603,-7815.527,-7819.969,-7840.7305,-7823.7173,-7795.5596,-7805.861,-7817.2617,-7843.556,-7870.2915,-7846.1074,-7843.3867,-7891.118,-7903.3887,-7877.6743,-7860.5674,-7826.7373,-7769.244,-7764.3247,-7799.0366,-7788.0527,-7785.846,-7815.815,-7811.8804,-7804.433,-7808.7036,-7791.9146,-7772.9604,-7768.202,-7765.8193,-7769.5244,-7773.847,-7770.5283,-7772.3574,-7775.867,-7814.2,-7892.508,-7918.3794,-7893.126,-7889.25,-7884.179,-7861.961,-7856.721,-7834.1855,-7775.1514,-7765.791,-7806.3564,-7807.665,-7797.9995,-7818.3516,-7828.026,-7813.1377,-7797.79,-7798.5127,-7801.387,-7800.657,-7798.3154,-7802.908,-7812.733,-7799.996,-7814.341,-7866.287,-7893.669,-7899.027,-7871.3022,-7819.1704,-7787.1104,-7778.285,-7790.878,-7827.744,-7862.2427,-7845.0337,-7811.886,-7814.8213,-7815.2866,-7805.8784,-7799.944,-7791.614,-7791.1143,-7802.602,-7827.0454,-7846.055,-7839.875,-7827.218,-7827.895,-7836.273,-7842.3296,-7830.925,-7805.078,-7800.095,-7812.7456,-7827.6543,-7842.423,-7837.9946,-7831.99,-7822.747,-7805.4917,-7835.7236,-7881.5654,-7893.075,-7896.107,-7867.4883,-7825.7617,-7826.0396,-7831.504,-7830.469,-7848.661,-7868.0977,-7854.6777,-7807.835,-7790.2686,-7827.6777,-7871.7056,-7889.884,-7869.81,-7838.622,-7831.83,-7823.2705,-7807.5933,-7799.868,-7798.8345,-7812.489,-7806.2656,-7784.2437,-7790.3604,-7805.119,-7829.402,-7850.9487,-7849.0083,-7855.615,-7860.652,-7841.2554,-7814.298,-7822.162,-7865.7227,-7877.964,-7864.5225,-7866.082,-7862.009,-7861.0234,-7863.827,-7854.6953,-7877.0664,-7906.2886,-7903.1445,-7912.5864,-7911.7114,-7858.3896,-7800.5625,-7804.8306,-7857.4307,-7875.4414,-7848.8237,-7847.7856,-7884.935,-7896.2954,-7865.6587,-7831.9062,-7821.5923,-7858.5913,-7896.833,-7877.446,-7852.7026,-7855.434,-7850.2104,-7853.938,-7896.509,-7917.6733,-7889.4556,-7880.688,-7885.2954,-7871.0366,-7864.6724,-7861.9043,-7859.0327,-7872.929,-7898.9316,-7893.4395,-7852.4873,-7851.1836,-7863.2803,-7847.0703,-7851.025,-7859.2407,-7866.7905,-7867.205,-7852.4917,-7879.8857,-7916.997,-7924.263,-7908.0146,-7863.0605,-7849.038,-7889.6406,-7909.014,-7899.8457,-7905.914,-7897.395,-7891.5054,-7899.9917,-7884.649,-7872.007,-7872.944,-7892.0054,-7901.158,-7888.0356,-7898.62,-7912.794,-7930.6934,-7951.9053,-7964.4746,-7975.6465,-7973.24,-7972.361,-7934.955,-7869.613,-7850.375,-7844.5537,-7845.541,-7866.5605,-7891.4604,-7921.1235,-7912.6685,-7900.081,-7918.509,-7918.9624,-7918.3677,-7909.77,-7900.4385,-7911.791,-7910.876,-7909.3315,-7905.165,-7912.2456,-7925.0327,-7928.278,-7950.177,-7956.4595,-7954.786,-7943.3633,-7904.4854,-7887.484,-7889.5786,-7897.9614,-7899.6245,-7900.3364,-7913.087,-7909.4404,-7902.5557,-7921.0024,-7954.1445,-7937.2246,-7889.646,-7882.7646,-7885.624,-7899.117,-7909.211,-7907.3447,-7928.05,-7938.809,-7934.236,-7902.9746,-7888.662,-7937.3354,-7945.3013,-7930.7417,-7943.815,-7941.516,-7961.8184,-7983.768,-7963.7104,-7909.8545,-7858.263,-7871.929,-7897.5645,-7904.577,-7903.9946,-7891.8535,-7904.2075,-7918.415,-7932.4106,-7936.667,-7933.2036,-7935.603,-7903.8564,-7884.33,-7880.672,-7880.159,-7904.2544,-7928.523,-7975.893,-8008.039,-7965.4546,-7899.642,-7878.482,-7898.703,-7913.399,-7929.748,-7963.114,-7964.479,-7933.2173,-7925.8613,-7916.828,-7894.999,-7902.336,-7919.0547,-7905.034,-7877.8477,-7878.3003,-7870.43,-7857.6064,-7871.343,-7891.9873,-7926.743,-7938.693,-7930.898,-7929.639,-7917.995,-7920.7505,-7935.204,-7937.2095,-7935.315,-7952.358,-7946.134,-7916.4424,-7940.697,-7985.9365,-7994.5034,-7954.801,-7920.43,-7931.9487,-7928.0854,-7907.0107,-7885.949,-7887.3984,-7927.2676,-7933.9194,-7924.4224,-7942.5894,-7946.6953,-7934.575,-7922.1064,-7916.04,-7924.198,-7921.7725,-7895.943,-7891.554,-7914.1094,-7905.2793,-7886.51,-7892.2285,-7908.47,-7937.946,-7947.0317,-7937.951,-7937.6426,-7938.0073,-7956.191,-7958.2944,-7933.1626,-7933.308,-7939.0347,-7921.4277,-7903.8574,-7905.9854,-7917.1543,-7909.241,-7894.8276,-7903.96,-7906.619,-7930.059,-8001.5083,-8031.5283,-8004.942,-7954.935,-7914.4834,-7917.083,-7928.3374,-7938.7065,-7927.3955,-7893.554,-7894.8853,-7918.194,-7928.9297,-7930.456,-7934.785,-7929.328,-7891.773,-7863.5728,-7879.4414,-7900.3555,-7914.019,-7920.439,-7911.696,-7910.2935,-7879.9683,-7834.1357,-7849.9536,-7902.62,-7942.4824,-7952.4077,-7967.5474,-7988.9067,-7971.9917,-7945.7715,-7933.6865,-7940.625,-7948.4907,-7939.346,-7945.1255,-7977.167,-8010.2495,-8001.5522,-7949.833,-7919.158,-7933.8003,-7933.5527,-7913.3843,-7905.5396,-7905.283,-7929.319,-7937.2017,-7928.5117,-7935.9355,-7907.434,-7880.9653,-7899.0957,-7944.7275,-7968.6064,-7919.1973,-7896.761,-7891.221,-7848.0044,-7872.888,-7903.328,-7894.714,-7929.5435,-7937.984,-7916.084,-7946.8022,-7975.0776,-7958.298,-7947.601,-7951.4746,-7955.3276,-7959.886,-7940.706,-7901.99,-7875.325,-7885.588,-7922.912,-7936.846,-7932.4814,-7946.256,-7957.7544,-7927.5938,-7899.6323,-7914.885,-7923.776,-7925.3657,-7923.7266,-7905.6274,-7901.318,-7904.9395,-7909.4556,-7939.0586,-7996.5444,-8011.708,-7965.3843,-7949.4736,-7957.999,-7947.2954,-7941.0454,-7926.4434,-7897.002,-7902.53,-7941.919,-7961.556,-7952.276,-7940.117,-7926.494,-7898.2334,-7908.7373,-7951.2065,-7954.467,-7944.3604,-7930.826,-7915.934,-7899.851,-7895.859,-7956.819,-7998.015,-7955.028,-7930.979,-7985.8535,-8035.6504,-8029.187,-8013.6562,-7987.3896,-7957.4106,-7929.4624,-7899.3203,-7910.0376,-7908.3267,-7889.733,-7907.4927,-7904.1323,-7888.991,-7888.8467,-7909.5176,-7948.1587,-7959.317,-7982.2896,-8020.006,-8038.655,-8004.7856,-7924.599,-7904.068,-7913.206,-7916.9966,-7923.6616,-7898.131,-7896.52,-7922.5913,-7959.5713,-8006.729,-8018.9727,-8018.008,-8002.801,-7951.758,-7905.688,-7886.106,-7879.486,-7881.7734,-7881.5737,-7853.3765,-7853.8667,-7913.461,-7959.123,-7987.8535,-8002.215,-8015.005,-8032.043,-7978.6147,-7915.083,-7910.028,-7944.6377,-8001.4883,-7998.5586,-7944.732,-7909.904,-7899.449,-7897.531,-7897.451,-7908.2476,-7914.763,-7941.6094,-7963.0317,-7932.9775,-7912.203,-7918.956,-7951.3823,-7980.764,-7986.5317,-7983.6475,-7938.3335,-7905.2783,-7903.0312,-7896.852,-7923.435,-7966.305,-8020.5293,-8051.943,-8028.112,-8007.8594,-7979.174,-7956.467,-7958.127,-7924.5664,-7923.106,-7997.0137,-8021.661,-7958.0244,-7920.244,-7955.423,-7962.712,-7917.416,-7885.163,-7871.3765,-7916.7935,-7986.7676,-7963.948,-7925.827,-7934.406,-7931.1074,-7939.286,-7949.546,-7967.989,-8032.3506,-8076.5474,-8088.479,-8070.587,-7993.0757,-7929.5835,-7933.3115,-7955.036,-7948.418,-7920.8066,-7910.0566,-7931.7754,-7935.8286,-7906.7974,-7895.317,-7903.9536,-7918.4717,-7916.528,-7900.727,-7895.984,-7903.826,-7936.731,-7948.2393,-7942.4253,-7965.2285,-7972.9346,-7961.9644,-7962.742,-7981.174,-7984.293,-7957.456,-7950.0435,-7960.618,-7959.0166,-7948.879,-7943.3574,-7940.402,-7939.883,-7948.0835,-7955.9995,-7948.049,-7931.6357,-7949.115,-7968.7207,-7964.279,-7970.2075,-7950.083,-7931.8325,-7964.3325,-7994.533,-8000.584,-8007.3096,-8016.0347,-7996.2676,-7966.177,-7955.332,-7960.7676,-7981.409,-7981.337,-7956.979,-7934.114,-7928.3945,-7941.5117,-7935.404,-7928.5415,-7942.2993,-7939.052,-7935.166,-7943.999,-7947.0913,-7954.55,-7949.7847,-7944.386,-7979.705,-8022.8057,-8035.367,-8007.5405,-7961.9873,-7964.0894,-7992.172,-7972.454,-7950.481,-7982.9854,-8026.3706,-8029.0244,-7989.28,-7956.9395,-7944.5312,-7960.471,-8005.2627,-8000.259,-7975.214,-7964.747,-7940.985,-7940.85,-7942.9707,-7941.0483,-7946.0127,-7948.019,-7956.0522,-7949.9976,-7954.5737,-7961.371,-7954.6846,-7965.429,-7972.6943,-7973.6997,-7978.916,-7991.573,-8004.794,-7998.0234,-7987.6714,-7987.89,-7982.8403,-7965.621,-7961.405,-7964.9146,-7957.4126,-7973.877,-8028.1245,-8056.931,-8017.4087,-7992.309,-8022.257,-8013.884,-7982.5376,-8016.096,-8079.1387,-8108.1245,-8072.5996,-8003.1323,-7981.3203,-7984.5156,-7981.5225,-8006.613,-8021.3315,-8001.7417,-8004.509,-8017.7803,-7986.5107,-7955.226,-7964.781,-7990.4253,-8015.989,-8009.5703,-7980.3306,-7961.1016,-7964.465,-8000.759,-8012.7373,-8002.4585,-8024.2085,-8039.792,-8035.533,-8027.3926,-8018.4316,-8020.191,-8018.8457,-8007.9014,-8002.1606,-8017.655,-8045.72,-8049.754,-8025.485,-8011.87,-8013.1123,-7995.755,-7996.355,-8037.4756,-8046.6265,-8025.597,-8010.199,-7991.605,-7994.252,-8008.416,-8031.367,-8077.855,-8081.8306,-8026.5483,-8008.6753,-8059.896,-8072.033,-8024.517,-8011.844,-8047.0825,-8091.7266,-8080.4673,-8028.879,-8033.0713,-8071.4243,-8091.6675,-8074.5557,-8053.69,-8074.2446,-8088.987,-8087.9727,-8090.6655,-8117.4263,-8184.739,-8223.443,-8157.235,-8029.4497,-8011.1133,-8090.3027,-8083.1406,-8027.3164,-8035.197,-8048.762,-8017.708,-8024.193,-8056.94,-8028.99,-8008.5156,-8027.619,-8050.653,-8101.171,-8166.817,-8208.524,-8174.603,-8097.3657,-8092.8804,-8124.8535,-8088.901,-8035.251,-8033.5117,-8021.663,-8013.594,-8063.8174,-8116.5645,-8177.282,-8205.283,-8163.7056,-8166.8804,-8195.529,-8154.413,-8078.348,-8044.953,-8038.567,-8008.5107,-8001.258,-8014.6226,-8030.235,-8068.2764,-8086.0117,-8098.4463,-8111.469,-8098.619,-8085.9126,-8063.8423,-8043.119,-8037.523,-8052.306,-8087.0234,-8087.9126,-8074.0537,-8081.5884,-8100.994,-8095.339,-8072.2974,-8118.3765,-8148.8994,-8111.792,-8098.5522,-8088.099,-8077.8755,-8065.665,-8047.5566,-8052.377,-8057.4673,-8076.6562,-8091.301,-8078.564,-8074.0933,-8062.953,-8043.703,-8046.6973,-8064.6885,-8081.926,-8093.8677,-8107.575,-8109.899,-8103.395,-8145.6885,-8162.925,-8087.4453,-8058.594,-8073.6284,-8084.4575,-8138.365,-8136.7207,-8105.945,-8119.3374,-8119.852,-8129.4834,-8096.416,-8037.9336,-8084.346,-8158.6973,-8135.919,-8071.118,-8078.6675,-8084.905,-8025.968,-8003.441,-8014.8213,-8038.3916,-8072.7065,-8081.863,-8079.4766,-8064.357,-8049.348,-8044.3574,-8057.3813,-8074.9556,-8057.581,-8038.6606,-8023.684,-8033.5767,-8056.6494,-8043.8657,-8038.914,-8021.759,-8011.509,-8038.415,-8052.8853,-8076.2036,-8082.6963,-8062.1133,-8067.0366,-8074.49,-8052.7896,-8023.9824,-8027.0693,-8053.5225,-8065.434,-8049.491,-8041.996,-8016.748,-7942.696,-7922.9546,-7968.673,-8053.049,-8129.287,-8124.8657,-8121.9395,-8106.438,-8066.472,-8081.6636,-8115.2964,-8117.072,-8074.7476,-8055.328,-8068.0303,-8062.3887,-8058.3765,-8027.4424,-7990.831,-7997.85,-8014.3745,-8021.805,-8029.385,-8038.1943,-8052.367,-8076.016,-8084.59,-8071.892,-8055.287,-8069.4175,-8106.365,-8105.9893,-8091.5024
-8058.595,-8026.0327,-8060.724,-8098.0527,-8093.3716,-8052.8906,-8025.809,-8044.3955,-8029.551,-7998.5576,-7992.99,-7988.0913,-7995.1665,-8024.512,-8054.626,-8052.238,-8040.732,-8024.936,-8001.318,-8037.8887,-8092.84,-8094.288,-8087.701,-8086.1294,-8047.41,-7995.03,-8016.4434,-8087.488,-8109.3267,-8087.314,-8066.5254,-8061.681,-8070.358,-8086.478,-8084.3315,-8063.904,-8063.73,-8050.67,-8033.5137,-8059.5796,-8068.186,-8046.3438,-8032.167,-8009.5293,-7992.161,-7998.659,-8001.536,-8024.54,-8090.07,-8107.0957,-8061.3623,-8051.661,-8121.65,-8186.257,-8119.816,-8033.469,-8007.526,-7966.72,-7979.3257,-7999.42,-7988.1807,-8028.979,-8055.578,-8056.7046,-8051.4434,-8030.88,-8043.0903,-8072.114,-8075.5693,-8049.877,-8038.393,-8042.9043,-8025.658,-8014.2954,-8024.205,-8038.491,-8045.489,-8069.434,-8097.403,-8077.297,-8054.2603,-8047.2725,-8071.535,-8144.4395,-8158.463,-8094.5083,-8068.0923,-8130.858,-8141.8613,-8054.19,-8031.195,-8003.6367,-7967.9424,-8021.6143,-8030.629,-8030.984,-8042.2188,-8019.512,-8031.347,-8013.584,-8005.6357,-8030.9595,-8016.294,-8029.882,-8053.2104,-8032.828,-8011.889,-8030.4,-8075.2573,-8098.8345,-8113.1304,-8155.4395,-8194.359,-8165.754,-8082.3086,-8006.377,-7984.8535,-8000.717,-8007.0063,-8035.181,-8073.592,-8080.1987,-8071.848,-8078.395,-8108.727,-8094.1147,-8049.471,-8024.2227,-7990.393,-7988.8643,-8004.6797,-8015.615,-8050.8003,-8056.2583,-8035.9673,-8008.744,-7988.568,-8044.3696,-8139.4,-8206.454,-8201.539,-8096.3535,-7985.55,-7980.903,-8022.803,-7995.978,-7965.438,-7976.628,-7981.7124,-7996.8936,-8003.0615,-7999.553,-8000.282,-8002.835,-8022.8105,-8029.5415,-8039.206,-8068.8335,-8091.8335,-8113.2383,-8111.523,-8087.846,-8098.717,-8129.507,-8105.2417,-8068.6855,-8076.5894,-8057.997,-8019.0854,-7996.7275,-7986.8237,-8006.36,-8005.946,-8014.9536,-8050.9536,-8013.87,-7971.27,-7983.106,-7985.8013,-7996.882,-7997.221,-7991.327,-8027.0483,-8043.9897,-8060.5933,-8081.4478,-8058.718,-8060.4062,-8068.224,-8066.962,-8088.5737,-8077.9785,-8050.086,-8029.3125,-8008.6807,-8019.4697,-8048.7905,-8077.2285,-8101.158,-8076.4976,-8036.067,-8026.5835,-7993.589,-7986.514,-8030.9785,-8040.797,-8017.5396,-7978.264,-7956.43,-7992.7246,-8081.6694,-8153.896,-8162.634,-8150.049,-8085.7354,-8035.0996,-8027.9863,-7971.583,-7973.3037,-7985.158,-7937.154,-7948.232,-7955.943,-7963.483,-7978.5107,-7962.7383,-7991.5093,-8009.002,-8020.385,-8069.683,-8079.4614,-8026.246,-7955.7188,-7954.249,-7993.5444,-7992.5356,-7983.7563,-8004.247,-8048.5645,-8076.7056,-8045.851,-7993.245,-7979.447,-7994.857,-8032.9087,-8070.49,-8076.9937,-8056.6416,-7994.419,-7957.5757,-7984.93,-7992.146,-7953.6816,-7933.687,-7980.093,-8001.0835,-7965.766,-7992.8257,-8028.1807,-8009.0615,-8028.903,-8050.2295,-8029.5117,-8040.5576,-8046.343,-8002.0522,-7966.4014,-7957.264,-7954.563,-7958.465,-7976.924,-8010.2007,-8028.2373,-8014.8896,-7997.5176,-7970.2197,-7946.4385,-7957.243,-7966.905,-7965.177,-7967.7227,-7982.5005,-7997.9814,-7996.444,-8002.2095,-8020.047,-8035.9336,-8018.191,-7975.0996,-7965.0723,-7980.7197,-8009.4614,-8030.7,-8017.575,-7997.427,-7977.229,-7957.7363,-7945.3037,-7955.0264,-8002.307,-8038.383,-8049.5464,-8045.31,-8007.139,-7979.1226,-7985.631,-8023.65,-8061.593,-8025.527,-7996.968,-8017.367,-7984.262,-7940.7637,-7940.9067,-7955.7783,-7974.7886,-7986.6445,-7990.965,-7965.668,-7931.1816,-7946.091,-7961.1245,-7930.098,-7902.4355,-7900.533,-7930.417,-7973.605,-8009.377,-8065.8022,-8086.7285,-8053.858,-8048.732,-8083.9517,-8091.502,-8029.5693,-7998.9106,-7997.529,-7945.6763,-7944.6113,-7974.527,-7939.155,-7921.0938,-7932.2754,-7910.136,-7920.0244,-7953.28,-7940.8174,-7940.8384,-7951.463,-7954.4634,-7959.343,-7965.4277,-8009.503,-8052.3135,-8076.0864,-8047.3374,-7959.999,-7918.64,-7910.93,-7928.9824,-7968.3384,-7981.1294,-7986.1304,-7973.779,-7977.6143,-8004.3706,-8009.3003,-8031.821,-8031.675,-7973.685,-7934.9507,-7931.2397,-7940.1895,-7952.147,-7977.091,-7993.7544,-7957.7153,-7945.74,-7997.521,-8050.4155,-8089.401,-8057.367,-7949.8535,-7900.6865,-7926.1846,-7953.0337,-7980.195,-8005.4937,-8003.3633,-7973.7056,-7943.9863,-7927.8525,-7925.9004,-7937.492,-7934.6763,-7929.204,-7945.525,-7950.3843,-7958.6113,-7997.694,-8028.596,-8029.041,-8006.1807,-7980.09,-7984.181,-7998.339,-7967.2617,-7934.6245,-7931.7295,-7913.438,-7923.2134,-7936.221,-7915.2036,-7959.0063,-8025.586,-8024.3184,-7988.828,-7969.3306,-7965.8677,-7937.3247,-7927.6763,-7958.5117,-7985.8516,-7993.966,-7942.0776,-7901.0864,-7919.0605,-7922.5522,-7952.9365,-8015.7065,-8042.7954,-8023.86,-7981.927,-7951.175,-7938.3833,-7959.399,-7999.4404,-8035.2256,-8035.596,-7969.559,-7913.188,-7925.15,-7986.8413,-8018.8125,-8003.964,-7978.2256,-7915.197,-7881.3315,-7894.494,-7917.2627,-7948.555,-7953.2285,-7961.86,-7965.918,-7953.563,-7946.7607,-7952.417,-7998.8394,-8018.796,-7990.6157,-7989.68,-8016.6113,-8020.7944,-7990.744,-7976.2485,-7970.2563,-7952.461,-7959.3403,-7958.8633,-7940.936,-7955.7744,-7968.2114,-7960.1104,-7960.073,-7950.001,-7955.041,-7979.739,-7967.9775,-7958.937,-7973.2715,-7956.608,-7940.1904,-7945.9766,-7942.867,-7953.633,-7990.4805,-8020.622,-8010.639,-7976.0317,-7992.3223,-8069.6763,-8092.1514,-8010.6924,-7943.773,-7933.2915,-7924.732,-7911.6626,-7897.8247,-7921.283,-7960.5557,-7984.051,-8012.8716,-7980.631,-7944.275,-7976.0186,-7972.5513,-7953.1597,-7951.45,-7936.195,-7946.6294,-7947.9355,-7931.6577,-7958.1606,-7992.62,-8002.326,-7983.1597,-7971.531,-7992.2744,-7969.3457,-7931.1367,-7928.5093,-7942.696,-7998.869,-8048.3413,-8033.9575,-7973.6533,-7927.958,-7945.9707,-7976.896,-7998.4536,-8021.8584,-8013.579,-7978.9053,-7956.739,-7942.878,-7936.861,-7948.632,-7944.007,-7954.362,-7971.6006,-7951.221,-7978.3525,-8014.988,-7987.812,-7968.927,-7958.9033,-7915.3364,-7882.843,-7919.168,-7959.912,-7962.401,-7975.564,-7984.316,-8001.0435,-8011.058,-7958.5034,-7930.94,-7960.956,-7962.0625,-7959.1313,-7975.2095,-7967.643,-7961.919,-7969.203,-7976.366,-7970.3438,-7949.0474,-7951.7505,-7959.728,-7975.178,-8028.425,-8074.0386,-8047.8867,-7981.8765,-8001.6177,-8038.512,-7991.2373,-7974.336,-7997.1924,-7993.676,-7971.3486,-7955.707,-7966.342,-7968.2983,-7957.7603,-7945.054,-7936.2983,-7961.4473,-8004.3594,-8018.7983,-7993.738,-7975.5415,-7968.499,-7951.008,-7940.802,-7969.565,-8029.094,-8052.694,-8059.4453,-8037.197,-7958.262,-7934.0947,-7975.584,-7996.624,-7992.234,-8001.864,-7998.143,-7977.4766,-7968.845,-7946.084,-7958.724,-7977.002,-7969.1426,-7989.554,-7986.5728,-7979.8315,-7981.2944,-7979.924,-7996.71,-7978.7954,-7966.4897,-7985.2603,-7990.0747,-7989.0996,-7991.322,-7996.21,-7989.9385,-7979.0444,-7974.9634,-7978.7476,-7982.4365,-7982.296,-7992.4688,-7974.094,-7944.4663,-7940.784,-7938.324,-8015.9995,-8151.9917,-8178.2993,-8143.991,-8144.715,-8098.8228,-8001.0176,-7961.712,-7983.088,-7969.352,-7931.6875,-7962.397,-8008.242,-7994.5947,-7984.4536,-7986.2354,-7962.361,-7948.051,-7957.054,-7948.539,-7930.7305,-7944.2095,-7959.2725,-7961.563,-7968.6855,-7974.52,-7997.035,-8019.976,-8028.242,-8041.4287,-8030.755,-8012.3237,-8014.871,-8001.691,-7980.937,-7968.2397,-7969.063,-7997.883,-8032.69,-8063.3574,-8048.6997,-7950.3745,-7880.9424,-7926.979,-7998.343,-8033.746,-8034.4326,-8006.059,-7980.5723,-7957.367,-7956.249,-7971.894,-7975.132,-7979.7817,-7972.491,-7995.801,-8068.1245,-8093.753,-8030.827,-7965.4614,-7977.9844,-8011.6846,-8006.311,-7975.703,-7962.2964,-7982.956,-8007.0425,-8019.3613,-7996.186,-7966.8774,-7963.4067,-7970.6357,-8023.207,-8059.0806,-8017.626,-7975.051,-7964.349,-7984.89,-8020.463,-8025.9404,-7976.227,-7932.495,-7954.486,-7960.0156,-7968.062,-8008.887,-7999.1147,-7994.8306,-8009.368,-8003.33,-7998.236,-7988.7983,-7986.9707,-7986.936,-8001.1284,-8011.12,-8005.8145,-8020.54,-8009.2324,-7987.8516,-8008.677,-8053.786,-8046.497,-7969.029,-7950.2666,-7974.009,-7980.1704,-8027.669,-8069.474,-8068.1704,-8050.12,-8024.3125,-8022.6504,-8013.4297,-7972.648,-7968.497,-8014.867,-8043.8022,-8023.0005,-8020.681,-8049.9497,-8013.9155,-7956.9487,-7956.0503,-7967.5547,-7975.9053,-7978.6807,-7988.545,-8002.1387,-8006.152,-8016.388,-8031.7036,-8059.2197,-8061.0703,-8033.3965,-8014.2593,-8011.0884,-8012.615,-7987.408,-7967.9634,-7955.335,-7942.73,-7963.2676,-8007.755,-8067.904,-8108.315,-8101.4316,-8056.649,-8018.9995,-8029.7363,-8053.799,-8026.001,-7971.56,-7979.9785,-7994.3135,-7986.713,-7998.9604,-7990.432,-7992.287,-8005.723,-8016.588,-8035.493,-8033.2456,-8038.1763,-8046.2437,-8057.1875,-8052.8345,-8004.9766,-8001.2827,-8019.935,-7998.5557,-7978.738,-7967.247,-7972.504,-7969.3076,-7959.5576,-7990.576,-7996.216,-7981.1797,-8008.397,-8046.9507,-8067.382,-8046.71,-8019.8613,-8018.0205,-8008.9194,-7999.694,-7990.679,-7974.085,-7976.918,-8017.6514,-8052.6997,-8041.783,-8032.2407,-8054.8877,-8082.2017,-8068.862,-8010.745,-7995.3496,-8028.1313,-8013.8877,-7982.4497,-7983.3877,-7975.1035,-7961.7,-7953.9463,-7957.5215,-7999.8354,-8042.5786,-8031.238,-8005.1807,-8006.318,-8002.134,-8000.791,-8000.489,-7989.11,-7991.746,-7990.0293,-7990.1855,-7991.2056,-7991.995,-8015.9243,-8048.7363,-8075.2715,-8067.419,-8038.3315,-8019.2876,-8032.5493,-8084.4966,-8087.5215,-8024.912,-7999.76,-8026.3267,-8032.0093,-8021.997,-8016.5737,-7994.5615,-7984.6284,-7992.887,-7994.055,-7987.781,-7986.2173,-7988.427,-7981.2944,-7991.702,-8003.3193,-8006.619,-8019.0034,-7983.2134,-7965.9893,-8026.47,-8049.894,-8046.1836,-8064.2007,-8068.2715,-8063.8184,-8043.13,-8011.022,-7995.4014,-7997.4175,-8004.026,-7999.116,-7996.2183,-8000.6504,-8015.0464,-8023.9907,-7995.533,-7976.5513,-7999.7173,-8023.086,-8017.603,-8007.1685,-8024.602,-8047.5664,-8059.089,-8077.709,-8083.3984,-8043.0356,-8001.952,-8002.7925,-8003.3926,-7994.278,-7987.006,-7979.9976,-7996.003,-8002.813,-7989.7607,-7990.4434,-7998.0835,-8028.409,-8067.4814,-8078.644,-8047.85,-7991.804,-8000.815,-8066.4844,-8093.1753,-8060.1006,-8010.268,-7998.193,-8008.7983,-8016.8125,-8011.382,-8009.1875,-8052.664,-8082.1567,-8049.4478,-7998.2725,-7982.567,-7999.0386,-8007.7905,-8013.151,-8010.6475,-8012.9653,-8028.139,-8043.059,-8073.8276,-8082.567,-8031.8965,-7973.1245,-7982.1104,-8027.656,-8029.506,-8009.7856,-8019.6826,-8047.518,-8053.9854,-8057.4385,-8047.5474,-8011.239,-8026.426,-8053.6265,-8029.783,-8007.9067,-7998.336,-8004.987,-8021.7383,-8015.0283,-8009.379,-8014.6226,-8011.6147,-8017.8384,-8060.8877,-8101.091,-8094.623,-8081.477,-8048.37,-7998.6196,-7999.9014,-8028.551,-8044.212,-8019.0747,-7998.3745,-8048.0874,-8084.3525,-8060.3574,-8029.3057,-8016.062,-8012.644,-8009.9883,-8014.0215,-8025.6616,-8034.9224,-8031.386,-8016.214,-8009.963,-8024.3496,-8037.76,-8066.442,-8102.671,-8092.3,-8087.595,-8083.9917,-8017.3813,-7969.1235,-7993.473,-8044.133,-8098.0522,-8132.629,-8117.383,-8074.942,-8044.9795,-8032.615,-8016.435,-7996.1978,-7999.9736,-8009.343,-8005.6294,-8007.0767,-8023.6895,-8035.7056,-8010.8955,-7998.3545,-8023.848,-8024.067,-8010.6084,-8011.7466,-8014.1943,-8026.793,-8031.2856,-8009.985,-8001.188,-8037.8745,-8080.734,-8085.3027,-8078.639,-8069.448,-8039.1377,-8007.641,-8004.678,-8016.027,-8003.518,-7989.9434,-7997.3765,-8010.9043,-8017.0557,-8015.689,-8035.555,-8045.5786,-8040.5396,-8050.668,-8050.6904,-8068.992,-8102.384,-8149.121,-8208.247,-8166.5757,-8059.221,-8014.293,-8016.201,-8008.3086,-7983.4453,-7985.972,-8010.0103,-8013.507,-8016.472,-8020.0264,-8033.441,-8056.719,-8042.8057,-8023.5117,-8031.1206,-8044.8843,-8039.352,-8024.8765,-8030.8228,-8015.372,-7995.956,-8002.9756,-8013.267,-8063.7,-8150.34,-8193.344,-8147.9014,-8097.183,-8093.6284,-8085.8433,-8080.3594,-8078.3306,-8078.383,-8067.6704,-8047.008,-8046.879,-8028.6055,-8012.791,-8007.315,-8003.109,-8021.086,-8014.434,-8006.899,-8017.385,-8026.588,-8041.7754,-8046.7705,-8049.1323,-8042.9414,-8035.535,-8034.739,-8031.5454,-8053.502,-8094.1157,-8113.7812,-8065.646,-7985.7334,-8005.9395,-8083.476,-8067.391,-8021.404,-8040.278,-8068.051,-8095.263,-8126.525,-8102.5845,-8032.2266,-8004.7734,-8036.9536,-8052.2397,-8049.62,-8054.3696,-8044.502,-8035.8154,-8030.14,-8020.288,-8030.1143,-8057.3174,-8067.2344,-8052.496,-8038.6655,-8022.9185,-8018.2124,-8039.108,-8068.14,-8103.9116,-8105.5054,-8057.4473,-8023.707,-8036.391,-8064.79,-8063.5493,-8063.519,-8077.972,-8060.3247,-8051.604,-8060.2686,-8053.5024,-8049.572,-8032.8394,-8019.1523,-8029.274,-8026.779,-8014.295,-8009.52,-8007.098,-8035.122,-8098.7026,-8129.216,-8107.623,-8067.2236,-8053.781,-8082.6484,-8073.7817,-8037.549,-8051.414,-8077.5386,-8079.897,-8080.48,-8083.5,-8080.579,-8096.044,-8133.0024,-8142.321,-8124.418,-8100.4917,-8055.8096,-8009.0264,-7994.449,-8017.694,-8057.484,-8071.479,-8069.724,-8059.7964,-8012.161,-8000.9824
-8071.022,-8133.5806,-8134.3657,-8084.5854,-8040.119,-8036.888,-8040.5933,-8031.003,-8023.276,-8029.099,-8035.86,-8044.6113,-8071.1904,-8094.6206,-8077.683,-8028.6987,-8017.6274,-8047.295,-8057.5186,-8068.656,-8087.079,-8089.5796,-8092.527,-8075.0454,-8076.019,-8127.2505,-8115.8584,-8064.2407,-8071.436,-8091.505,-8083.291,-8039.0024,-8007.468,-8035.2266,-8048.6675,-8032.1733,-8040.6006,-8066.9897,-8084.083,-8075.0933,-8052.6567,-8051.0654,-8072.935,-8088.148,-8077.0835,-8067.918,-8100.9023,-8165.7773,-8185.197,-8140.354,-8108.209,-8071.6816,-8024.4385,-8026.694,-8064.4253,-8130.9214,-8143.903,-8069.397,-8041.234,-8070.92,-8112.229,-8124.2075,-8056.6416,-7983.8345,-7993.511,-8045.0684,-8045.202,-8018.169,-8021.774,-8037.3247,-8043.466,-8039.1772,-8052.3477,-8071.4927,-8064.5024,-8048.8716,-8045.254,-8068.741,-8116.201,-8150.505,-8139.6875,-8099.047,-8058.6963,-8037.2114,-8039.1846,-8047.2656,-8057.0635,-8061.5654,-8058.5576,-8060.881,-8074.5938,-8103.5986,-8137.47,-8176.0327,-8171.0957,-8101.442,-8062.1235,-8038.0522,-8019.3086,-8050.0044,-8047.1772,-8043.2295,-8067.108,-8047.4307,-8030.4756,-8025.76,-8023.2285,-8032.143,-8045.046,-8062.9326,-8056.5225,-8045.5596,-8049.0312,-8068.6187,-8071.5215,-8039.5747,-8053.396,-8074.3447,-8059.4736,-8065.9883,-8064.393,-8052.259,-8059.939,-8077.178,-8127.837,-8158.4297,-8113.217,-8057.255,-8007.474,-7994.4077,-8022.5186,-8019.4536,-8022.6313,-8050.5425,-8069.372,-8075.5444,-8074.8247,-8082.101,-8082.9395,-8061.4395,-8025.602,-8024.043,-8042.115,-8038.3364,-8049.9453,-8072.992,-8096.631,-8118.623,-8110.5747,-8063.5166,-8039.5684,-8055.9297,-8074.738,-8149.6904,-8187.1074,-8129.7734,-8088.599,-8051.182,-8035.02,-8043.357,-8062.3574,-8089.8677,-8081.2324,-8075.5024,-8047.9346,-8009.859,-8033.719,-8053.3364,-8050.61,-8068.823,-8084.433,-8067.3813,-8039.06,-8044.1284,-8059.296,-8049.8657,-8046.2456,-8050.271,-8051.8027,-8065.173,-8073.676,-8077.065,-8084.4233,-8097.1304,-8136.3022,-8161.9473,-8134.192,-8078.309,-8010.818,-8005.1904,-8053.353,-8035.816,-8008.841,-8032.061,-8060.8945,-8084.293,-8090.825,-8084.7354,-8057.559,-8038.2617,-8047.9175,-8056.6494,-8082.0024,-8102.855,-8119.826,-8151.737,-8138.268,-8080.7314,-8066.915,-8092.6304,-8092.616,-8111.468,-8136.2197,-8118.125,-8105.0635,-8080.0933,-8048.973,-8075.7925,-8136.0273,-8122.671,-8046.986,-8049.3813,-8091.1436,-8082.4443,-8070.1147,-8070.941,-8062.2964,-8062.804,-8081.2466,-8079.008,-8067.9927,-8083.678,-8103.0195,-8101.6577,-8100.7964,-8119.855,-8154.825,-8187.1743,-8168.324,-8133.7754,-8095.6904,-8049.29,-8070.552,-8075.782,-8056.391,-8072.2485,-8058.115,-8055.5415,-8066.1963,-8079.4194,-8106.417,-8089.438,-8056.8696,-8039.4307,-8045.711,-8080.1445,-8102.0605,-8091.45,-8074.893,-8072.1465,-8068.928,-8066.0654,-8069.312,-8094.059,-8109.885,-8114.962,-8184.275,-8230.735,-8177.134,-8129.373,-8138.567,-8144.084,-8117.5103,-8120.2534,-8136.91,-8109.659,-8081.2583,-8081.1587,-8110.9897,-8111.0713,-8057.818,-8051.6606,-8068.24,-8066.067,-8071.737,-8072.791,-8085.554,-8089.8096,-8080.9766,-8081.739,-8075.2764,-8065.35,-8058.051,-8056.8403,-8052.869,-8061.96,-8101.106,-8123.4253,-8107.37,-8083.972,-8082.3657,-8091.117,-8088.1484,-8079.011,-8078.576,-8092.4365,-8116.77,-8142.93,-8131.0786,-8092.126,-8080.27,-8081.2197,-8086.948,-8086.4634,-8068.152,-8074.18,-8097.542,-8109.154,-8119.65,-8109.7573,-8085.505,-8083.515,-8060.849,-8046.9023,-8096.365,-8126.8403,-8128.28,-8123.7207,-8114.6685,-8121.192,-8096.513,-8067.532,-8078.4917,-8096.4395,-8125.1333,-8145.929,-8125.91,-8093.1226,-8093.7666,-8128.263,-8123.9834,-8065.1543,-8034.354,-8052.0615,-8093.105,-8121.103,-8099.9077,-8079.8247,-8103.3896,-8135.5156,-8130.921,-8117.899,-8121.712,-8091.745,-8073.7803,-8114.8643,-8147.7695,-8169.554,-8213.132,-8228.881,-8185.4214,-8130.5894,-8090.5405,-8089.8696,-8107.77,-8086.875,-8064.3447,-8059.834,-8079.194,-8112.22,-8100.8354,-8060.572,-8046.0312,-8066.1714,-8074.4946,-8076.2104,-8085.3306,-8076.5405,-8097.466,-8139.1763,-8128.672,-8084.905,-8058.15,-8045.775,-8047.9097,-8074.2617,-8108.7427,-8167.4043,-8204.196,-8134.1577,-8064.737,-8105.856,-8126.2656,-8065.504,-8041.154,-8043.0493,-8043.326,-8054.223,-8035.4946,-8026.089,-8036.7505,-8059.9927,-8085.565,-8066.1865,-8050.4507,-8035.8506,-8020.4834,-8037.0,-8036.2754,-8029.6016,-8024.196,-8012.2705,-8006.9595,-8006.0894,-8043.935,-8079.463,-8065.3086,-8051.1113,-8053.5327,-8069.7236,-8089.2085,-8078.916,-8055.4204,-8039.2705,-8037.3916,-8045.0786,-8033.9614,-8030.968,-8029.4727,-8016.2754,-8030.3823,-8035.5835,-8048.5713,-8100.0215,-8115.042,-8062.3735,-7995.3706,-7994.373,-8022.2266,-7998.979,-7979.108,-8007.3403,-8035.518,-8018.453,-7994.881,-8023.5864,-8060.4497,-8041.845,-8030.513,-8063.7344,-8073.205,-8084.3657,-8098.391,-8084.6074,-8082.6094,-8071.406,-8080.243,-8106.982,-8089.285,-8059.283,-8030.204,-8022.531,-8038.225,-8041.519,-8039.9253,-8047.3237,-8068.8965,-8072.062,-8032.1094,-8001.928,-8031.2686,-8035.7524,-7992.103,-8008.1465,-8045.413,-8061.4634,-8089.7515,-8112.543,-8109.4517,-8084.312,-8069.5464,-8043.7104,-8023.054,-8049.7104,-8052.3735,-8028.18,-8035.8584,-8078.046,-8104.8613,-8068.821,-8022.3687,-8001.4683,-8000.005,-8009.0444,-7999.028,-8000.1494,-8009.523,-8011.544,-8050.2563,-8096.346,-8123.8804,-8136.7324,-8119.563,-8102.7227,-8081.4785,-8052.14,-8044.581,-8046.4404,-8067.109,-8077.023,-8041.908,-8015.5786,-8007.1123,-8000.958,-8004.016,-8003.933,-8013.806,-8050.398,-8089.72,-8117.5693,-8118.855,-8076.467,-8044.9727,-8052.2974,-8051.854,-8049.5347,-8073.5215,-8095.9727,-8097.108,-8093.6245,-8086.1313,-8075.281,-8072.8003,-8063.4565,-8029.876,-8001.246,-8001.2485,-8000.232,-8014.5938,-8081.5205,-8135.8755,-8123.3086,-8071.6685,-8025.2417,-8042.2637,-8084.47,-8068.8037,-8054.184,-8066.304,-8057.7666,-8052.154,-8047.0703,-8038.449,-8050.9365,-8062.4253,-8062.914,-8054.8213,-8041.772,-8034.1226,-8022.4243,-8014.1953,-8025.7397,-8074.3687,-8145.6235,-8169.684,-8128.074,-8076.293,-8043.9136,-8024.486,-8044.2397,-8075.186,-8080.835,-8107.59,-8112.212,-8091.941,-8111.0986,-8127.4277,-8101.974,-8042.976,-8039.622,-8078.5254,-8074.9897,-8100.2427,-8108.4717,-8045.4146,-8016.2075,-8039.887,-8067.4766,-8090.618,-8100.2075,-8065.2944,-8042.9536,-8066.667,-8069.1206,-8050.407,-8026.741,-8015.6353,-8025.592,-8028.792,-8037.087,-8045.711,-8054.478,-8093.434,-8148.5796,-8168.194,-8144.119,-8117.311,-8085.991,-8072.217,-8098.405,-8115.904,-8119.115,-8102.16,-8107.2573,-8171.327,-8172.4263,-8104.0347,-8047.0205,-8027.967,-8057.6733,-8074.045,-8083.6177,-8071.3213,-8026.6343,-8026.907,-8036.805,-8055.5273,-8095.744,-8106.7695,-8090.8735,-8074.8135,-8090.0684,-8112.107,-8098.8896,-8059.5566,-8046.6475,-8057.2876,-8060.724,-8097.5537,-8140.601,-8143.0923,-8098.01,-8056.294,-8070.5757,-8074.1904,-8067.5684,-8072.825,-8102.9995,-8150.805,-8129.6914,-8123.542,-8162.7646,-8147.7627,-8132.651,-8124.383,-8094.279,-8081.783,-8072.1357,-8055.7593,-8046.427,-8052.884,-8076.7993,-8105.241,-8105.7275,-8071.1914,-8059.6216,-8055.6997,-8044.3984,-8047.3945,-8040.7603,-8059.419,-8079.043,-8098.6504,-8174.6006,-8208.847,-8180.388,-8174.426,-8169.0117,-8120.33,-8073.9023,-8067.5933,-8077.0073,-8097.954,-8118.839,-8142.5,-8148.4434,-8098.3643,-8056.17,-8075.21,-8133.8516,-8180.4634,-8178.2515,-8137.854,-8094.787,-8057.108,-8023.5786,-8044.4546,-8110.1353,-8169.529,-8165.9717,-8089.7036,-8066.3164,-8098.6416,-8103.0605,-8084.9897,-8077.0146,-8099.711,-8098.9478,-8095.175,-8133.6504,-8155.4478,-8143.2783,-8111.706,-8095.848,-8105.588,-8116.937,-8125.5303,-8106.838,-8102.8784,-8136.116,-8161.4673,-8214.824,-8258.265,-8216.755,-8168.965,-8137.901,-8080.3755,-8046.898,-8060.59,-8075.62,-8084.1846,-8110.266,-8142.0,-8150.1235,-8139.8716,-8147.295,-8151.3623,-8137.04,-8150.6006,-8145.803,-8123.3726,-8134.0444,-8146.7554,-8193.489,-8245.479,-8240.766,-8217.625,-8177.9824,-8154.309,-8192.562,-8225.39,-8231.12,-8243.123,-8210.661,-8165.7793,-8174.542,-8191.4336,-8192.87,-8170.935,-8161.0864,-8163.5605,-8132.824,-8135.386,-8172.226,-8202.872,-8221.702,-8210.032,-8200.915,-8192.621,-8212.005,-8263.953,-8279.918,-8307.582,-8351.096,-8340.153,-8268.203,-8191.434,-8184.3096,-8187.56,-8182.7783,-8210.355,-8219.11,-8235.693,-8257.395,-8267.106,-8288.016,-8281.365,-8285.402,-8305.828,-8328.377,-8372.802,-8368.839,-8334.122,-8324.443,-8310.307,-8314.358,-8348.395,-8352.921,-8356.503,-8390.6,-8375.314,-8325.352,-8340.12,-8411.784,-8456.145,-8454.91,-8429.4795,-8396.387,-8373.218,-8329.658,-8314.183,-8376.13,-8423.828,-8430.8,-8453.255,-8463.549,-8439.569,-8450.462,-8478.669,-8472.319,-8451.852,-8437.461,-8437.709,-8426.833,-8427.143,-8432.156,-8405.969,-8394.671,-8384.271,-8381.331,-8407.944,-8405.926,-8383.558,-8388.92,-8401.861,-8385.232,-8385.451,-8412.156,-8393.066,-8368.058,-8364.805,-8347.997,-8353.5,-8354.593,-8334.493,-8317.569,-8276.978,-8282.253,-8324.28,-8312.936,-8295.166,-8282.581,-8275.896,-8284.924,-8277.454,-8253.847,-8219.162,-8221.684,-8245.112,-8241.888,-8258.469,-8257.698,-8229.809,-8243.414,-8258.71,-8239.227,-8204.233,-8180.0796,-8186.343,-8204.425,-8212.601,-8193.029,-8181.456,-8201.275,-8194.71,-8156.421,-8106.9683,-8093.9883,-8137.072,-8151.2036,-8145.5835,-8160.2905,-8182.6694,-8201.889,-8179.965,-8145.113,-8137.984,-8135.7324,-8120.9624,-8113.117,-8132.0366,-8148.14,-8132.1987,-8087.069,-8064.4517,-8080.6597,-8099.476,-8153.8916,-8230.054,-8254.256,-8217.876,-8156.3423,-8098.557,-8058.2007,-8050.8306,-8056.924,-8065.771,-8072.27,-8066.909,-8078.076,-8081.599,-8063.1978,-8056.87,-8064.6064,-8065.5317,-8058.42,-8070.212,-8074.451,-8057.6724,-8037.1616,-8029.722,-8071.879,-8099.252,-8081.8003,-8087.621,-8107.5615,-8111.2725,-8093.8843,-8078.894,-8107.1025,-8143.5376,-8136.1216,-8108.4805,-8083.093,-8073.7056,-8089.066,-8088.374,-8080.382,-8078.728,-8068.9155,-8097.277,-8164.021,-8188.486,-8137.147,-8089.3794,-8098.181,-8109.1987,-8091.5815,-8064.724,-8068.3765,-8078.4194,-8053.45,-8045.7993,-8055.817,-8060.688,-8072.807,-8071.917,-8063.937,-8061.7925,-8065.081,-8068.9795,-8068.8,-8072.5586,-8087.1206,-8129.7144,-8153.209,-8123.9536,-8113.237,-8121.255,-8114.692,-8108.054,-8088.4126,-8077.798,-8105.3413,-8124.82,-8116.138,-8110.4263,-8095.475,-8079.574,-8084.4526,-8079.9595,-8082.647,-8102.7524,-8126.166,-8145.307,-8138.7812,-8129.6875,-8127.8784,-8152.296,-8178.3027,-8152.8633,-8152.2354,-8181.9507,-8182.2983,-8155.1494,-8119.3086,-8137.4487,-8171.651,-8150.7563,-8121.9873,-8102.859,-8097.183,-8106.359,-8096.1265,-8101.3335,-8128.952,-8124.009,-8112.844,-8122.847,-8123.684,-8118.3228,-8124.0884,-8125.0034,-8110.612,-8109.1606,-8129.8457,-8148.491,-8158.47,-8157.6797,-8162.4214,-8174.038,-8155.5596,-8127.2817,-8122.4907,-8131.091,-8133.3486,-8114.7188,-8115.6323,-8139.779,-8135.4316,-8134.976,-8142.1494,-8143.311,-8183.3184,-8210.508,-8178.2437,-8128.856,-8110.396,-8136.716,-8162.2275,-8163.4717,-8147.901,-8158.3887,-8186.478,-8179.9243,-8174.9834,-8173.5044,-8188.878,-8206.464,-8180.813,-8163.8643,-8165.1196,-8179.3486,-8168.9126,-8147.709,-8140.968,-8102.784,-8109.4927,-8125.8247,-8120.0806,-8132.9214,-8123.7993,-8135.1094,-8127.263,-8113.038,-8131.3555,-8126.595,-8136.3823,-8124.6445,-8112.315,-8141.522,-8165.8286,-8219.301,-8233.049,-8186.6445,-8170.0195,-8163.838,-8190.335,-8223.197,-8184.27,-8128.8184,-8104.029,-8111.319,-8109.901,-8089.275,-8107.526,-8125.2754,-8117.035,-8111.9033,-8128.9346,-8163.8037,-8153.554,-8135.693,-8155.694,-8169.511,-8172.261,-8163.714,-8148.425,-8144.9565,-8155.134,-8171.931,-8211.397,-8232.729,-8184.0386,-8165.092,-8200.434,-8251.288,-8304.73,-8271.148,-8194.222,-8126.0894,-8070.0894,-8091.4727,-8122.4097,-8125.101,-8111.639,-8090.92,-8124.782,-8154.454,-8171.424,-8184.679,-8166.4297,-8165.385,-8145.2373,-8117.9463,-8106.835,-8114.31,-8169.237,-8215.889,-8240.988,-8191.6694,-8123.2593,-8147.3765,-8154.483,-8146.1836,-8178.696,-8223.151,-8230.433,-8157.5283,-8114.828,-8134.8823,-8143.0996,-8143.0493,-8139.2603,-8142.335,-8143.252,-8134.204,-8138.5444,-8143.17,-8127.5176,-8111.386,-8128.783,-8138.585,-8129.2515,-8149.7417,-8150.709,-8145.683,-8171.365,-8177.4087,-8201.783,-8229.962,-8199.351,-8163.7705,-8179.84,-8204.001,-8181.139,-8168.553,-8184.1313,-8199.368,-8225.374,-8248.626,-8223.702,-8126.59,-8074.009,-8097.7676,-8124.8823,-8158.351,-8161.022,-8182.5215,-8226.811,-8196.721,-8160.707,-8171.1475,-8182.356,-8182.31,-8161.122,-8108.1826,-8090.962,-8132.7007,-8163.519,-8179.7993,-8180.279,-8181.893,-8208.909,-8230.085,-8246.633,-8224.579,-8169.593,-8159.6567,-8188.8857
-8220.447,-8209.792,-8155.337,-8149.929,-8172.182,-8161.72,-8173.104,-8178.1587,-8149.96,-8141.005,-8134.747,-8120.012,-8123.2563,-8154.734,-8179.6353,-8170.016,-8171.7827,-8189.439,-8183.5903,-8173.732,-8180.962,-8199.171,-8216.401,-8225.359,-8233.747,-8216.568,-8185.867,-8176.405,-8168.8853,-8170.6655,-8174.145,-8173.633,-8181.0747,-8190.411,-8232.937,-8301.356,-8340.645,-8298.595,-8196.372,-8155.277,-8186.2026,-8178.7427,-8136.4893,-8141.241,-8171.806,-8185.9424,-8194.012,-8202.258,-8200.738,-8170.538,-8146.1655,-8168.5713,-8198.605,-8192.946,-8175.0303,-8166.4155,-8163.195,-8162.237,-8139.702,-8147.5747,-8210.318,-8232.969,-8203.082,-8173.301,-8175.9927,-8197.479,-8228.492,-8288.36,-8316.637,-8260.477,-8176.083,-8181.557,-8258.774,-8284.617,-8254.376,-8195.734,-8167.393,-8186.418,-8185.033,-8201.615,-8228.163,-8200.962,-8183.523,-8187.349,-8174.517,-8173.8267,-8158.6934,-8141.0444,-8158.203,-8171.864,-8168.863,-8139.991,-8133.192,-8166.8887,-8196.18,-8221.777,-8211.879,-8201.453,-8213.97,-8199.933,-8178.646,-8169.1475,-8167.6465,-8156.5186,-8164.7495,-8189.082,-8167.028,-8167.0845,-8212.584,-8229.136,-8203.859,-8170.3545,-8175.8594,-8189.9844,-8188.106,-8189.7534,-8170.8613,-8150.521,-8155.525,-8160.366,-8149.876,-8143.8193,-8156.357,-8158.7026,-8161.339,-8171.44,-8165.172,-8194.748,-8246.122,-8242.598,-8219.855,-8221.071,-8224.898,-8220.161,-8207.359,-8187.0967,-8179.2646,-8179.1064,-8191.3125,-8191.2495,-8129.084,-8130.187,-8228.828,-8269.654,-8262.653,-8252.168,-8217.58,-8196.065,-8186.2476,-8169.78,-8150.3613,-8113.413,-8101.388,-8130.272,-8156.129,-8174.719,-8172.325,-8172.0107,-8186.8223,-8187.6724,-8188.1787,-8163.66,-8122.6406,-8139.974,-8210.496,-8256.315,-8269.134,-8263.564,-8212.44,-8173.2236,-8149.0303,-8126.013,-8162.825,-8191.87,-8191.97,-8208.512,-8212.405,-8217.354,-8227.334,-8205.116,-8157.9907,-8114.9253,-8103.394,-8144.537,-8186.1763,-8182.221,-8177.281,-8172.862,-8154.3647,-8157.5005,-8195.272,-8226.881,-8193.391,-8164.666,-8208.844,-8240.148,-8238.021,-8203.512,-8157.5264,-8178.911,-8187.2285,-8170.0396,-8197.438,-8193.118,-8170.9766,-8175.54,-8159.155,-8143.1226,-8152.718,-8163.985,-8178.3984,-8173.032,-8138.6978,-8147.366,-8177.1562,-8178.491,-8193.018,-8211.664,-8235.429,-8252.558,-8224.868,-8213.154,-8229.802,-8215.959,-8182.721,-8173.8135,-8193.759,-8216.676,-8220.939,-8210.128,-8217.409,-8247.714,-8259.925,-8231.054,-8188.0522,-8157.8145,-8141.591,-8140.618,-8135.835,-8132.0347,-8142.804,-8160.92,-8185.654,-8189.8003,-8190.629,-8193.816,-8180.331,-8188.5186,-8205.262,-8211.138,-8192.316,-8154.802,-8168.153,-8194.674,-8171.2944,-8141.554,-8156.888,-8215.306,-8251.653,-8242.557,-8241.239,-8243.421,-8201.503,-8149.431,-8154.834,-8180.0503,-8178.683,-8173.6187,-8160.8584,-8158.359,-8168.5244,-8161.867,-8163.748,-8173.9805,-8180.9673,-8182.1987,-8178.675,-8190.105,-8203.902,-8217.196,-8249.298,-8305.261,-8321.462,-8243.247,-8180.6396,-8198.342,-8198.199,-8162.0713,-8162.6694,-8183.85,-8173.1055,-8171.689,-8195.485,-8205.187,-8222.564,-8225.667,-8184.386,-8147.1396,-8151.5703,-8204.135,-8227.115,-8179.821,-8148.3223,-8147.5815,-8149.7,-8166.712,-8171.2036,-8168.5195,-8190.1333,-8187.564,-8167.79,-8172.8535,-8171.1055,-8168.8696,-8170.996,-8164.274,-8163.0723,-8161.2144,-8161.507,-8167.9404,-8180.55,-8207.964,-8242.734,-8275.775,-8280.681,-8240.778,-8206.703,-8205.738,-8192.798,-8151.608,-8127.07,-8148.6797,-8176.842,-8189.989,-8190.124,-8165.8433,-8162.626,-8183.4604,-8190.185,-8191.05,-8203.593,-8223.823,-8207.192,-8181.5005,-8182.5195,-8174.488,-8159.007,-8157.7017,-8189.9375,-8228.517,-8231.632,-8207.163,-8195.084,-8213.935,-8213.151,-8195.41,-8189.9404,-8184.1113,-8199.25,-8224.069,-8222.917,-8219.6,-8202.095,-8144.7583,-8141.7993,-8203.964,-8232.297,-8239.08,-8220.158,-8197.581,-8215.435,-8194.911,-8177.316,-8208.282,-8205.1,-8201.9375,-8223.993,-8226.343,-8193.509,-8136.684,-8139.9834,-8203.857,-8222.108,-8189.7217,-8170.3975,-8175.951,-8184.5337,-8203.99,-8226.255,-8230.21,-8217.493,-8189.0103,-8200.498,-8262.236,-8291.211,-8266.709,-8244.0625,-8240.888,-8212.541,-8192.761,-8176.3735,-8132.0454,-8140.159,-8155.3174,-8169.629,-8202.346,-8176.0757,-8177.8984,-8212.458,-8212.138,-8207.2295,-8202.653,-8215.178,-8219.19,-8227.269,-8221.227,-8172.407,-8181.7295,-8201.986,-8193.348,-8202.453,-8183.583,-8179.252,-8197.664,-8205.662,-8238.956,-8273.018,-8297.393,-8294.494,-8235.03,-8174.7827,-8156.487,-8159.6562,-8188.263,-8235.062,-8226.271,-8180.993,-8176.126,-8202.8955,-8211.365,-8181.223,-8174.711,-8209.417,-8213.395,-8179.845,-8176.534,-8202.5205,-8196.66,-8194.879,-8210.377,-8192.742,-8165.301,-8156.1694,-8183.824,-8224.332,-8211.912,-8184.6377,-8217.958,-8274.423,-8269.053,-8217.003,-8189.8125,-8173.5845,-8160.882,-8180.261,-8182.0454,-8184.5854,-8201.864,-8184.3833,-8196.299,-8224.68,-8222.004,-8213.319,-8198.928,-8202.765,-8201.165,-8188.6484,-8193.034,-8205.188,-8225.12,-8216.5625,-8172.8076,-8139.17,-8139.528,-8170.1074,-8216.903,-8244.35,-8231.373,-8231.144,-8235.651,-8206.451,-8203.273,-8214.946,-8184.2197,-8180.056,-8205.54,-8206.619,-8234.718,-8257.292,-8209.771,-8147.786,-8157.5464,-8204.08,-8198.425,-8186.6777,-8177.1587,-8157.9717,-8162.8677,-8174.244,-8184.165,-8182.497,-8181.7466,-8183.7266,-8192.854,-8200.987,-8186.364,-8184.9478,-8171.34,-8153.8438,-8160.6294,-8167.7637,-8189.48,-8210.273,-8222.456,-8226.921,-8217.272,-8213.361,-8211.442,-8207.634,-8230.401,-8270.924,-8265.572,-8214.057,-8171.906,-8160.4243,-8147.084,-8144.974,-8178.5845,-8163.657,-8141.1323,-8193.158,-8224.517,-8174.996,-8107.299,-8128.2593,-8217.4795,-8261.879,-8246.639,-8214.903,-8213.888,-8229.902,-8210.609,-8179.6616,-8181.607,-8186.2173,-8175.2783,-8185.166,-8206.604,-8215.542,-8209.895,-8196.135,-8191.9023,-8197.594,-8195.349,-8181.113,-8182.6987,-8199.025,-8211.743,-8235.411,-8274.672,-8294.879,-8256.4375,-8208.614,-8195.153,-8183.0176,-8186.2915,-8200.777,-8189.7085,-8170.004,-8193.619,-8257.817,-8277.544,-8259.603,-8242.916,-8213.811,-8199.908,-8185.939,-8169.742,-8181.546,-8184.8784,-8170.108,-8165.4683,-8186.6997,-8210.878,-8213.136,-8223.519,-8232.095,-8217.468,-8199.143,-8183.3794,-8188.9766,-8207.63,-8212.434,-8201.239,-8180.849,-8185.852,-8210.444,-8231.789,-8251.761,-8240.828,-8203.35,-8201.203,-8239.601,-8229.141,-8168.8125,-8159.73,-8185.961,-8196.463,-8211.995,-8216.229,-8200.426,-8203.585,-8200.08,-8179.473,-8195.58,-8220.073,-8211.052,-8187.904,-8164.0605,-8166.426,-8192.986,-8195.892,-8196.696,-8231.097,-8257.519,-8253.328,-8250.573,-8251.962,-8240.494,-8240.131,-8239.325,-8228.251,-8231.523,-8220.32,-8209.027,-8203.439,-8186.922,-8191.713,-8206.026,-8223.723,-8226.675,-8207.979,-8202.763,-8212.103,-8225.916,-8212.829,-8214.016,-8244.961,-8227.076,-8212.51,-8256.177,-8318.495,-8354.066,-8321.318,-8244.472,-8204.874,-8236.909,-8241.454,-8180.2134,-8150.4688,-8171.423,-8203.322,-8221.403,-8252.118,-8304.828,-8310.503,-8277.74,-8269.452,-8262.706,-8224.988,-8204.489,-8221.609,-8235.972,-8230.592,-8224.273,-8234.071,-8234.706,-8227.69,-8236.604,-8240.835,-8231.202,-8218.167,-8211.915,-8218.408,-8225.091,-8223.648,-8235.784,-8266.812,-8278.335,-8265.452,-8252.129,-8244.617,-8253.238,-8274.037,-8273.43,-8239.161,-8215.725,-8218.74,-8214.077,-8214.517,-8232.753,-8255.048,-8268.226,-8263.203,-8279.739,-8306.958,-8277.385,-8207.615,-8163.55,-8170.6816,-8207.765,-8237.057,-8228.41,-8222.302,-8236.71,-8218.431,-8198.405,-8196.066,-8195.355,-8202.055,-8201.948,-8213.382,-8223.314,-8210.5205,-8199.748,-8199.564,-8209.882,-8234.127,-8256.875,-8245.038,-8211.489,-8175.2314,-8159.4824,-8201.325,-8248.566,-8253.001,-8254.691,-8267.879,-8245.632,-8222.853,-8239.505,-8228.199,-8209.798,-8213.993,-8220.645,-8235.677,-8222.08,-8216.093,-8236.389,-8221.592,-8198.802,-8204.155,-8215.077,-8207.402,-8206.197,-8221.651,-8213.197,-8188.805,-8183.411,-8195.2705,-8205.134,-8205.84,-8195.602,-8184.2383,-8177.4297,-8180.0337,-8215.103,-8242.44,-8210.533,-8154.046,-8143.1646,-8178.771,-8182.7754,-8167.7446,-8171.1094,-8167.463,-8186.507,-8211.143,-8215.268,-8237.898,-8265.289,-8280.389,-8264.949,-8221.071,-8179.605,-8136.0435,-8136.4736,-8184.9165,-8197.5,-8182.9893,-8177.4834,-8174.2676,-8185.34,-8191.6797,-8189.1997,-8202.037,-8206.617,-8200.7,-8195.107,-8189.2417,-8197.872,-8236.118,-8300.2705,-8297.023,-8195.331,-8133.497,-8150.946,-8167.2324,-8176.742,-8190.191,-8191.285,-8213.205,-8260.927,-8274.724,-8254.731,-8232.624,-8221.335,-8219.933,-8194.127,-8168.577,-8180.972,-8186.9263,-8165.1924,-8150.0522,-8162.137,-8186.551,-8217.27,-8230.702,-8203.645,-8188.714,-8209.89,-8244.538,-8255.129,-8233.84,-8224.566,-8211.415,-8185.855,-8159.8096,-8157.185,-8205.0205,-8229.768,-8197.458,-8156.4204,-8152.583,-8180.558,-8180.8745,-8173.094,-8187.5566,-8212.902,-8247.413,-8259.837,-8243.421,-8205.427,-8183.2417,-8205.685,-8205.312,-8196.478,-8194.365,-8178.0083,-8197.956,-8203.773,-8192.537,-8213.494,-8211.687,-8187.4233,-8177.4517,-8194.698,-8202.654,-8196.471,-8203.854,-8195.888,-8194.145,-8195.915,-8188.3164,-8184.9087,-8184.4434,-8201.515,-8206.878,-8214.184,-8236.029,-8247.475,-8243.394,-8201.197,-8153.222,-8142.853,-8176.0317,-8195.581,-8182.7944,-8203.834,-8227.272,-8238.027,-8221.746,-8159.9653,-8147.883,-8180.913,-8205.776,-8212.663,-8192.003,-8192.153,-8218.439,-8249.276,-8242.194,-8177.927,-8162.291,-8183.9746,-8173.4536,-8166.9043,-8172.6367,-8201.442,-8230.337,-8237.942,-8246.975,-8235.272,-8231.138,-8251.019,-8253.063,-8232.935,-8193.3125,-8147.331,-8129.8213,-8138.8535,-8154.885,-8185.6313,-8187.671,-8175.1655,-8194.878,-8208.035,-8241.119,-8252.7295,-8206.307,-8178.542,-8166.697,-8166.4966,-8175.335,-8187.0396,-8196.212,-8194.703,-8200.756,-8201.234,-8216.774,-8243.059,-8236.584,-8208.788,-8190.872,-8194.196,-8206.087,-8219.865,-8213.122,-8196.199,-8197.57,-8201.084,-8202.812,-8213.504,-8232.608,-8217.987,-8187.9126,-8177.5063,-8166.106,-8197.011,-8238.095,-8226.488,-8208.968,-8209.326,-8209.608,-8212.947,-8216.763,-8196.467,-8181.606,-8183.6484,-8178.284,-8175.609,-8197.398,-8258.486,-8290.793,-8265.435,-8238.295,-8229.747,-8229.509,-8206.518,-8172.9155,-8159.8735,-8161.805,-8158.2866,-8160.743,-8184.951,-8201.47,-8207.081,-8205.914,-8204.586,-8200.694,-8180.2188,-8175.7163,-8174.275,-8152.0015,-8175.1445,-8230.523,-8218.137,-8199.696,-8213.339,-8192.798,-8196.554,-8219.022,-8218.281,-8226.6455,-8229.39,-8236.765,-8261.028,-8292.167,-8271.484,-8162.8525,-8117.869,-8195.042,-8240.4,-8220.08,-8217.201,-8236.279,-8237.461,-8208.738,-8187.4336,-8192.982,-8198.084,-8204.874,-8240.582,-8291.871,-8289.337,-8213.797,-8157.9673,-8176.3735,-8188.2856,-8168.637,-8172.812,-8178.709,-8174.9907,-8178.9087,-8173.837,-8146.3525,-8153.3184,-8215.421,-8241.259,-8244.398,-8243.116,-8209.8,-8198.15,-8202.468,-8202.972,-8215.551,-8233.615,-8238.52,-8232.23,-8232.443,-8229.192,-8226.566,-8221.596,-8227.439,-8246.713,-8249.411,-8240.62,-8228.22,-8248.165,-8253.682,-8206.374,-8184.7856,-8182.4033,-8188.378,-8195.079,-8204.202,-8253.661,-8306.172,-8305.227,-8230.235,-8179.945,-8180.11,-8163.9443,-8175.0664,-8172.3047,-8162.9565,-8195.611,-8198.39,-8200.399,-8206.133,-8190.8965,-8200.523,-8224.177,-8242.896,-8236.799,-8230.744,-8247.237,-8236.332,-8206.371,-8185.9146,-8190.5474,-8209.715,-8207.829,-8206.364,-8209.757,-8202.513,-8198.19,-8197.819,-8204.113,-8218.419,-8222.9795,-8216.613,-8209.947,-8205.867,-8208.303,-8205.111,-8208.692,-8233.813,-8236.961,-8212.641,-8204.121,-8235.832,-8275.785,-8254.325,-8215.866,-8222.377,-8187.125,-8154.8174,-8218.715,-8233.248,-8200.533,-8209.658,-8212.496,-8232.768,-8226.635,-8193.514,-8210.904,-8231.867,-8225.962,-8206.839,-8222.011,-8247.265,-8206.282,-8168.451,-8205.172,-8250.815,-8256.214,-8265.582,-8247.038,-8206.036,-8228.902,-8244.474,-8203.433,-8172.204,-8176.2837,-8198.388,-8215.3125,-8216.534,-8205.009,-8202.546,-8206.046,-8205.146,-8198.237,-8181.5967,-8194.875,-8244.759,-8268.256,-8230.29,-8189.746,-8210.333,-8252.875,-8270.747,-8273.492,-8251.438,-8194.233,-8151.4434,-8169.3574,-8220.494,-8248.837,-8257.226,-8255.357,-8225.751,-8198.235,-8197.282,-8203.108,-8198.131,-8192.939,-8194.352,-8197.497,-8212.594,-8229.942,-8234.04,-8240.959,-8290.947,-8343.213,-8338.694,-8333.3125,-8319.541,-8263.1,-8224.207
