SampleData
0.0,8496.099,20416.016,1136.6244,-18523.783,-227.89304,-3360.2048,-11364.319,1093.5751,-8072.569,-4888.3276,-2019.1892,-8776.22,-1639.2306,-7449.102,-5561.152,-4734.944,-8646.939,-4260.317,-8578.292,-6029.594,-6644.694,-7695.9795,-5126.9263,-7585.1914,-4792.4995,-6037.146,-5445.49,-4538.764,-5820.918,-4117.1206,-5553.8423,-4801.544,-5257.0244,-5815.367,-5298.5386,-6531.3193,-5954.6016,-6715.4165,-6718.3438,-6569.09,-6937.5684,-6306.5015,-6584.0483,-6028.817,-5858.8994,-5708.5,-5317.0244,-5466.359,-5047.7803,-5113.2363,-5101.932,-5171.169,-5410.9136,-5479.0186,-5864.4736,-6018.657,-6332.2295,-6498.972,-6469.8804,-6570.4736,-6483.749,-6448.166,-6273.345,-6094.1426,-5920.33,-5684.46,-5559.902,-5374.2793,-5284.1934,-5249.9883,-5281.2524,-5421.8403,-5552.8623,-5718.6675,-5883.8105,-6131.385,-6366.1367,-6495.6475,-6504.499,-6384.736,-6392.7607,-6409.1396,-6272.355,-6103.8315,-5910.8765,-5731.489,-5579.4688,-5503.075,-5496.6465,-5483.3213,-5498.3657,-5507.3066,-5572.204,-5729.081,-5844.932,-5941.3784,-6058.8643,-6170.25,-6274.221,-6326.5503,-6284.429,-6216.3105,-6153.0615,-6052.2466,-5960.7393,-5875.267,-5778.8774,-5680.658,-5601.7324,-5598.3906,-5618.8193,-5668.884,-5770.1064,-5856.404,-5935.7383,-6056.309,-6172.0967,-6196.476,-6222.23,-6261.167,-6213.705,-6143.3213,-6081.554,-6019.21,-5934.104,-5849.5703,-5801.483,-5706.073,-5653.3115,-5729.0356,-5769.8633,-5736.986,-5731.15,-5783.1704,-5911.657,-6097.5503,-6265.495,-6344.319,-6274.6665,-6198.725,-6266.655,-6280.0396,-6129.338,-5983.765,-5926.675,-5903.3804,-5892.073,-5894.4243,-5821.408,-5753.847,-5794.835,-5791.5786,-5786.514,-5858.83,-5920.9204,-5986.14,-6030.767,-6042.5317,-6048.2056,-6069.995,-6132.2983,-6172.9185,-6175.1235,-6152.4644,-6149.177,-6134.33,-5987.9443,-5856.031,-5845.1313,-5857.513,-5908.858,-5970.5054,-5970.1255,-5959.183,-6007.093,-6053.7705,-6024.212,-6029.4307,-6068.691,-6080.065,-6135.282,-6124.9546,-6107.2954,-6159.808,-6064.431,-5948.473,-5902.033,-5851.1606,-5845.842,-5841.8047,-5912.6646,-5954.281,-5933.17,-5994.6855,-6010.8784,-6054.4893,-6114.929,-6076.164,-6047.2124,-6016.3794,-5998.2246,-5990.6807,-5976.802,-6000.827,-6024.3174,-6057.55,-6108.3613,-6161.857,-6190.8906,-6133.442,-6061.897,-6068.148,-6091.08,-6089.209,-6094.1865,-6069.3403,-6018.8,-6011.314,-5989.371,-5974.1226,-6004.044,-5971.21,-5969.9106,-6004.844,-6002.2905,-6096.4717,-6172.001,-6190.841,-6267.11,-6260.9863,-6135.795,-6031.0337,-6032.5015,-6018.191,-5960.784,-6011.074,-6022.1943,-5946.1685,-5952.604,-5980.01,-5995.4507,-6018.7227,-6010.0015,-6047.1704,-6119.8765,-6123.083,-6123.3086,-6193.248,-6230.1445,-6187.293,-6173.771,-6176.167,-6152.0757,-6145.1675,-6105.9756,-6056.019,-6050.923,-6033.772,-6042.5234,-6092.3833,-6077.553,-6048.6567,-6040.6406,-6007.2163,-6059.624,-6142.02,-6105.9346,-6038.0166,-6026.117,-6079.4604,-6136.4614,-6137.4404,-6129.468,-6125.471,-6121.4937,-6142.4116,-6142.9795,-6110.6055,-6085.8467,-6054.2227,-6045.784,-6090.5273,-6165.298,-6204.7466,-6128.3755,-6044.1357,-6083.924,-6160.2046,-6149.8213,-6123.455,-6144.9365,-6126.4785,-6119.0967,-6160.6045,-6173.993,-6157.939,-6103.268,-6044.82,-6043.6533,-6063.496,-6042.747,-6046.8755,-6110.238,-6123.531,-6127.171,-6170.467,-6168.5376,-6138.529,-6204.784,-6359.5024,-6403.247,-6283.635,-6136.2827,-6108.6094,-6179.2393,-6192.2964,-6162.455,-6087.128,-6028.9653,-6069.426,-6078.8843,-6102.319,-6134.6313,-6121.104,-6185.0747,-6229.784,-6172.3296,-6172.5894,-6266.2437,-6285.8364,-6231.267,-6262.7637,-6262.232,-6146.8843,-6154.2754,-6257.442,-6240.3394,-6205.1475,-6196.665,-6130.447,-6122.2188,-6164.048,-6136.174,-6118.853,-6152.98,-6163.058,-6144.4683,-6132.035,-6143.189,-6167.1504,-6197.5693,-6210.37,-6189.619,-6189.618,-6196.798,-6207.5,-6233.7793,-6218.058,-6193.4927,-6192.8223,-6185.195,-6168.293,-6165.1055,-6201.151,-6263.9834,-6261.4414,-6177.717,-6200.5264,-6308.2144,-6330.6704,-6330.5845,-6311.619,-6251.3667,-6230.1304,-6228.3403,-6202.025,-6170.971,-6155.5854,-6122.985,-6091.498,-6097.859,-6104.8203,-6146.9087,-6189.1514,-6163.021,-6170.502,-6225.007,-6248.776,-6261.3403,-6329.3496,-6410.398,-6356.9844,-6260.27,-6298.412,-6343.1685,-6292.289,-6237.0737,-6205.252,-6227.9355,-6307.761,-6333.3477,-6281.281,-6239.226,-6211.1045,-6131.3286,-6106.556,-6168.8984,-6184.8228,-6224.4478,-6267.7476,-6247.732,-6234.1553,-6206.9053,-6267.145,-6393.645,-6401.8057,-6348.395,-6315.026,-6283.684,-6205.3477,-6134.3384,-6141.053,-6159.2617,-6198.2485,-6262.125,-6308.7183,-6329.7954,-6317.5024,-6320.2124,-6315.574,-6255.7334,-6237.812,-6289.52,-6310.0166,-6275.5073,-6206.815,-6161.493,-6195.533,-6236.116,-6239.2153,-6233.6113,-6240.359,-6234.424,-6206.4023,-6267.783,-6360.5586,-6399.671,-6427.636,-6354.555,-6300.658,-6340.6387,-6300.5957,-6251.7065,-6224.3325,-6211.309,-6271.651,-6328.886,-6348.9404,-6353.158,-6382.7,-6352.2783,-6221.1963,-6193.409,-6249.3657,-6264.8833,-6291.525,-6342.084,-6411.765,-6409.198,-6301.8804,-6306.361,-6367.624,-6325.8555,-6306.6743,-6325.89,-6349.493,-6400.818,-6429.6313,-6338.0728,-6209.5312,-6226.8267,-6266.915,-6347.0586,-6515.043,-6530.6885,-6432.8354,-6341.4517,-6277.9756,-6275.4233,-6272.0527,-6272.4556,-6295.9893,-6354.743,-6402.649,-6339.756,-6303.2656,-6331.041,-6295.9907,-6275.8325,-6291.547,-6339.9673,-6386.135,-6305.9805,-6223.842,-6213.0186,-6245.4165,-6328.379,-6348.465,-6356.9854,-6413.8076,-6403.161,-6375.0303,-6405.755,-6401.0835,-6380.3833,-6391.118,-6336.096,-6289.906,-6291.16,-6291.1753,-6357.728,-6387.432,-6384.635,-6428.0396,-6431.177,-6420.211,-6386.1157,-6327.9834,-6317.912,-6372.88,-6454.8013,-6461.6,-6435.6807,-6431.8984,-6415.0376,-6390.3755,-6311.876,-6224.4766,-6221.72,-6241.6387,-6233.138,-6269.5205,-6343.695,-6367.858,-6407.8887,-6459.3086,-6474.6606,-6474.8794,-6395.6553,-6413.15,-6581.228,-6626.6475,-6560.277,-6466.082,-6391.956,-6366.562,-6307.941,-6257.7197,-6232.4995,-6254.0586,-6325.991,-6324.0244,-6318.925,-6359.4746,-6348.0073,-6354.078,-6385.5264,-6380.627,-6404.304,-6398.789,-6349.1997,-6361.3755,-6392.2725,-6462.954,-6557.498,-6550.5786,-6516.539,-6504.725,-6472.758,-6434.1465,-6399.1323,-6407.842,-6449.822,-6465.533,-6450.363,-6440.8784,-6425.396,-6371.4766,-6369.6934,-6409.6924,-6387.0195,-6363.6963,-6351.915,-6340.8413,-6387.895,-6414.9194,-6412.858,-6452.178,-6439.7134,-6414.174,-6465.059,-6463.8037,-6440.5566,-6478.717,-6470.365,-6416.8374,-6409.1587,-6436.835,-6453.743,-6461.241,-6441.9746,-6400.767,-6375.669,-6381.2544,-6437.2095,-6443.8145,-6407.3257,-6432.561,-6455.9766,-6519.843,-6592.867,-6561.645,-6531.84,-6537.824,-6535.3184,-6522.897,-6531.841,-6604.46,-6605.9,-6444.0884,-6304.994,-6304.111,-6368.079,-6407.2617,-6389.8223,-6420.5083,-6474.7075,-6437.855,-6402.87,-6416.086,-6460.46,-6536.5513,-6558.7163,-6508.4146,-6488.1953,-6504.123,-6491.7334,-6500.4893,-6503.3574,-6476.5337,-6516.477,-6583.421,-6605.7617,-6557.0034,-6477.805,-6437.765,-6393.0146,-6380.9365,-6418.5483,-6433.365,-6447.4946,-6477.506,-6501.5244,-6476.2153,-6456.1177,-6492.2134,-6483.515,-6476.2637,-6513.395,-6509.6724,-6482.479,-6462.2974,-6466.0195,-6497.216,-6509.6113,-6492.7383,-6496.463,-6515.626,-6512.7935,-6519.08,-6519.879,-6513.4434,-6498.0156,-6445.02,-6452.293,-6500.61,-6480.044,-6467.2446,-6499.7197,-6518.6387,-6531.4697,-6527.567,-6498.0605,-6498.82,-6541.95,-6588.7793,-6589.296,-6533.2686,-6529.607,-6584.2983,-6572.968,-6550.336,-6533.253,-6483.151,-6481.024,-6476.8433,-6461.8555,-6446.789,-6430.62,-6501.872,-6521.968,-6488.941,-6527.994,-6576.5757,-6636.1626,-6623.0234,-6602.4243,-6687.396,-6665.6104,-6579.709,-6563.442,-6538.382,-6578.289,-6653.632,-6589.7744,-6492.9927,-6510.9824,-6537.2295,-6546.4233,-6592.132,-6574.7285,-6511.466,-6499.5083,-6507.772,-6500.51,-6490.6436,-6522.9766,-6530.458,-6475.3594,-6477.791,-6508.3657,-6562.3125,-6644.225,-6617.2637,-6579.914,-6634.895,-6700.5376,-6710.186,-6639.936,-6631.9385,-6693.5923,-6666.676,-6643.3364,-6651.4424,-6554.19,-6471.1333,-6515.1187,-6538.307,-6480.891,-6459.522,-6538.9736,-6603.398,-6579.9976,-6561.954,-6608.01,-6707.7524,-6709.96,-6607.989,-6600.639,-6612.892,-6574.8364,-6539.574,-6518.28,-6557.7104,-6596.1,-6596.317,-6590.6685,-6599.215,-6607.374,-6588.8438,-6606.8027,-6599.1143,-6564.2266,-6576.4233,-6559.278,-6584.5645,-6644.0117,-6638.483,-6635.6187,-6602.23,-6559.682,-6598.691,-6668.15,-6715.793,-6722.1504,-6742.5503,-6768.639,-6689.6104,-6609.823,-6610.322,-6598.213,-6620.392,-6652.1816,-6607.8574,-6602.109,-6613.852,-6585.447,-6596.0557,-6600.5796,-6613.169,-6636.3286,-6611.182,-6600.2827,-6627.1177,-6658.8066,-6629.762,-6628.656,-6680.894,-6657.934,-6664.5034,-6690.888,-6663.918,-6613.827,-6541.2544,-6531.689,-6597.653,-6674.3413,-6727.3994,-6764.625,-6752.7046,-6676.5996,-6601.8823,-6550.19,-6582.7866,-6667.9014,-6683.6074,-6665.597,-6679.5396,-6672.385,-6630.9194,-6599.9697,-6584.179,-6631.231,-6687.3706,-6690.7476,-6687.1978,-6655.864,-6649.1006,-6672.898,-6651.7104,-6647.22,-6696.125,-6722.2427,-6722.729,-6744.5435,-6716.2646,-6697.622,-6756.94,-6764.065,-6733.3887,-6690.0747,-6655.967,-6652.1636,-6623.658,-6661.317,-6712.3696,-6684.9946,-6631.9824,-6583.1772,-6588.496,-6577.3643,-6575.855,-6635.7896,-6644.3926,-6658.1216,-6722.8447,-6769.328,-6773.544,-6762.6665,-6769.954,-6752.772,-6708.459,-6678.969,-6681.361,-6690.1753,-6678.9316,-6687.241,-6710.3496,-6726.695,-6727.9272,-6724.305,-6752.83,-6755.5728,-6731.5957,-6731.1157,-6695.42,-6627.22,-6585.946,-6617.864,-6705.187,-6730.1094,-6701.061,-6683.005,-6664.608,-6660.164,-6664.1436,-6697.9937,-6754.1973,-6747.4907,-6735.1655,-6745.6865,-6700.443,-6671.9917,-6723.537,-6819.893,-6911.0137,-6902.6816,-6789.621,-6684.09,-6671.878,-6727.395,-6772.177,-6769.5347,-6738.7764,-6712.1304,-6677.9097,-6650.682,-6667.5513,-6719.094,-6756.9414,-6745.5825,-6746.623,-6774.2725,-6753.3667,-6741.1,-6802.896,-6846.1885,-6809.0933,-6744.9243,-6746.553,-6784.6265,-6753.9546,-6729.3096,-6780.2173,-6857.1274,-6878.773,-6794.0366,-6689.5596,-6630.093,-6678.7725,-6780.1216,-6774.6865,-6742.1787,-6726.099,-6712.633,-6724.333,-6727.7256,-6729.483,-6718.1333,-6745.095,-6791.488,-6770.7095,-6740.861,-6749.709,-6789.5986,-6821.212,-6849.408,-6858.3945,-6807.9697,-6762.4326,-6748.064,-6806.5596,-6899.871,-6870.911,-6749.454,-6689.3657,-6733.5366,-6731.402,-6669.6963,-6720.399,-6802.635,-6801.4546,-6801.6836,-6831.5176,-6823.318,-6772.5474,-6748.485,-6763.915,-6766.4795,-6751.0156,-6762.213,-6793.1484,-6815.9263,-6818.771,-6794.205,-6779.563,-6777.9556,-6788.984,-6811.971,-6802.564,-6836.1597,-6895.254,-6896.6973,-6919.872,-6857.9976,-6741.0186,-6791.9453,-6843.9185,-6820.9585,-6808.8315,-6754.9517,-6736.2983,-6765.9854,-6770.75,-6752.8066,-6707.3267,-6698.7876,-6733.7456,-6757.0,-6827.0205,-6892.144,-6856.3647,-6788.489,-6743.59,-6780.322,-6865.8237,-6892.5454,-6913.6714,-6942.144,-6908.661,-6805.831,-6743.54,-6754.735,-6752.888,-6831.075,-6954.9785,-6980.4556,-6922.5703,-6821.2583,-6779.2554,-6801.972,-6856.7715,-6899.274,-6909.195,-6972.2305,-6967.141,-6887.08,-6832.2437,-6793.865,-6814.347,-6792.386,-6752.281,-6786.9316,-6841.02,-6933.6973,-7014.345,-7030.382,-6940.7866,-6800.076,-6793.569,-6795.5713,-6729.209,-6772.2227,-6843.311,-6843.3965,-6839.7417,-6843.875,-6919.167,-6996.594,-6940.885,-6905.3877,-6905.1865,-6840.136,-6833.0845,-6874.688,-6889.0713,-6851.33,-6752.6855,-6765.895,-6867.5024,-6904.987,-6960.1797,-7030.1963,-7042.684,-6977.46,-6925.1914,-6995.2803,-7016.1367,-6985.3477,-7062.0356,-7082.0376,-6950.501,-6887.3423,-6933.683,-6882.377,-6838.5874,-6892.0054,-6848.132,-6802.1646,-6863.5547,-6930.8047,-6960.0156,-6936.894,-6882.2847,-6854.868,-6905.4854,-6932.445,-6899.2803,-6900.175,-6877.4272,-6852.229,-6874.633,-6907.1113,-6922.3657,-6919.8564,-6981.4243,-7015.0957,-6993.3643,-7038.4624,-7031.748,-7028.6084,-7085.907,-6995.951,-6860.1714,-6780.6396,-6755.3647,-6861.6,-6909.9634,-6867.512,-6865.1064,-6858.1196,-6916.3823,-7056.3613,-7193.6504,-7240.255,-7083.361,-6876.1895,-6870.341,-6959.487,-6941.5117,-6924.0166,-6952.81,-6948.012,-7002.6963,-7052.275,-6964.92,-6878.4395,-6859.0576,-6827.6274,-6839.092,-6931.9097,-6973.976,-6920.439,-6896.919,-6910.3975,-6900.76,-6924.3887,-6963.201,-6989.2354,-6986.309,-6918.855,-6898.205,-6922.7065,-6944.1074,-6989.56,-7018.789,-7055.5444,-7038.0005,-6951.882,-6921.2393,-6951.025,-6997.3823,-7001.417,-7006.95,-7025.77,-7004.065,-6975.3027,-6895.951,-6847.58,-6890.7334,-6917.3833,-6915.6147,-6882.0024,-6867.3145,-6887.787,-6911.258,-6951.0293,-6960.5454,-6949.531,-6971.9727,-7070.926,-7209.795,-7304.7544,-7249.1836,-7012.077,-6869.716,-6878.2217,-6871.6406,-6870.168
-6877.0405,-6916.5874,-6960.2236,-6967.8555,-6936.4478,-6893.4404,-6924.35,-6933.888,-6922.1846,-6929.868,-6893.331,-6891.0737,-6938.147,-7010.661,-7064.9995,-7061.92,-7065.095,-7032.179,-6986.6606,-7037.5586,-7100.8936,-7065.739,-6991.938,-6983.108,-7014.5327,-7038.1245,-7047.179,-7031.7144,-7045.391,-7035.635,-6963.9756,-6946.9927,-6921.032,-6866.0957,-6866.0806,-6848.4985,-6873.836,-6977.3384,-7002.7017,-6986.9043,-6993.7686,-6973.573,-6983.5806,-7003.0312,-6986.534,-6997.6074,-7052.1514,-7105.568,-7060.6797,-6997.41,-7004.6895,-6989.4375,-6968.609,-6949.1323,-6939.8076,-6936.33,-6948.746,-7019.518,-7028.4243,-7024.644,-7062.288,-7098.8364,-7137.278,-7069.248,-6975.9766,-6953.772,-6973.9727,-7002.5703,-6966.77,-6959.8174,-6980.5327,-6967.123,-7006.913,-7071.5767,-7096.6934,-7081.2705,-7072.525,-7097.3887,-7042.586,-6944.286,-6986.576,-7093.8057,-7135.1987,-7132.9233,-7100.012,-7039.395,-6970.969,-6968.623,-7000.865,-6980.823,-6962.7515,-6993.9883,-7040.691,-7011.1196,-6976.423,-7005.82,-7014.0312,-7068.6665,-7161.216,-7176.941,-7124.756,-7027.2104,-6916.627,-6912.9907,-6987.8433,-7006.752,-7054.664,-7075.0864,-7002.217,-6998.5786,-7023.749,-7001.469,-6993.576,-7025.927,-7034.562,-7030.0674,-7085.4165,-7131.876,-7098.9067,-7030.1387,-7022.326,-7041.929,-7066.015,-7127.2085,-7096.1577,-7050.767,-7100.8047,-7100.597,-7062.4546,-7046.789,-7023.364,-6994.2607,-6959.5913,-6964.5195,-6977.728,-6939.629,-6943.9575,-6965.3022,-6941.1733,-6932.263,-6926.923,-6971.1777,-7035.878,-7020.007,-7011.709,-7045.2046,-7063.028,-7032.0737,-6979.255,-6988.4443,-7038.126,-7038.195,-7037.379,-7080.301,-7027.206,-6907.98,-6841.045,-6788.7026,-6769.296,-6782.7065,-6824.173,-6870.9497,-6867.693,-6863.4844,-6850.363,-6843.561,-6871.222,-6878.5405,-6885.561,-6874.828,-6854.517,-6901.8804,-6969.364,-6954.8994,-6878.458,-6845.898,-6804.9165,-6730.2627,-6704.819,-6700.738,-6750.308,-6855.497,-6924.3667,-6910.561,-6850.428,-6868.6685,-6923.747,-6892.4287,-6824.3325,-6801.7554,-6771.979,-6733.356,-6746.8857,-6722.5835,-6726.654,-6803.6685,-6785.9854,-6713.6343,-6694.938,-6750.701,-6787.3623,-6780.1147,-6789.581,-6727.7983,-6696.0083,-6735.6416,-6743.35,-6757.4106,-6714.9,-6689.89,-6726.289,-6717.293,-6780.3784,-6831.6626,-6763.406,-6771.725,-6805.248,-6770.0186,-6758.4043,-6761.83,-6810.096,-6858.3706,-6805.1865,-6805.925,-6841.161,-6769.7637,-6726.1426,-6698.6953,-6636.3613,-6622.8784,-6667.112,-6696.7944,-6648.92,-6666.0825,-6722.4966,-6726.824,-6771.957,-6829.5015,-6830.877,-6739.8335,-6721.372,-6784.236,-6806.208,-6849.2793,-6821.8774,-6777.7104,-6732.9795,-6685.366,-6754.7563,-6784.676,-6756.84,-6716.9756,-6676.2246,-6695.9307,-6708.5527,-6749.295,-6773.736,-6717.688,-6743.844,-6848.2144,-6896.655,-6923.201,-6916.3755,-6835.2007,-6791.9985,-6788.2607,-6739.352,-6696.112,-6737.885,-6825.4707,-6861.726,-6868.117,-6850.411,-6833.4546,-6871.029,-6864.296,-6821.2554,-6836.362,-6902.7197,-6908.8906,-6825.779,-6744.6943,-6684.741,-6776.933,-6931.978,-6960.8794,-6928.2646,-6844.2764,-6849.5723,-6853.2085,-6787.88,-6890.592,-6959.6006,-6916.4995,-6869.6484,-6795.664,-6812.301,-6871.473,-6916.6187,-7023.6196,-7085.964,-6973.712,-6846.5576,-6818.0356,-6814.1875,-6853.619,-6891.869,-6941.1846,-7023.311,-7045.663,-6978.1846,-6840.4995,-6802.8975,-6831.114,-6800.438,-6835.054,-6870.283,-6879.4077,-6916.495,-6924.6343,-6953.951,-6971.502,-6966.8164,-6949.444,-6879.676,-6862.586,-6863.4766,-6861.839,-6927.8027,-6955.507,-6972.4927,-7021.601,-7044.1655,-7083.2744,-7069.2197,-7000.1826,-7009.29,-6992.0977,-6893.6104,-6840.915,-6815.345,-6827.1753,-6875.6416,-6838.1978,-6836.967,-6912.27,-6946.653,-7001.9077,-6986.74,-6929.348,-6990.035,-7053.8813,-7101.8086,-7164.8394,-7136.8457,-6992.175,-6873.382,-6872.5474,-6885.6235,-6908.5503,-6949.027,-6933.6084,-6975.918,-7066.6416,-7065.4346,-7044.393,-7002.455,-6949.0728,-6978.9736,-7010.0576,-7062.9805,-7108.7026,-7068.6597,-7127.0146,-7174.794,-7080.696,-7035.9165,-6953.546,-6834.122,-6851.9517,-6908.309,-6936.9194,-6965.965,-7031.4004,-7124.2827,-7146.437,-7112.7495,-7082.618,-7080.024,-7142.8667,-7166.9277,-7040.346,-6952.9233,-6968.7734,-6917.496,-6911.8354,-7025.7705,-7111.264,-7058.9707,-6934.4,-6976.3057,-7062.5957,-7050.2954,-7061.9126,-7010.742,-6986.2476,-7057.2227,-7065.27,-7081.988,-7092.75,-7089.521,-7181.684,-7197.0166,-7058.6616,-6978.0845,-6988.9307,-6983.7617,-6984.0825,-7056.4727,-7185.32,-7257.7393,-7221.7017,-7143.274,-7026.999,-6931.2534,-6954.483,-7037.678,-7139.006,-7150.644,-7043.274,-7027.7876,-7058.7437,-7060.32,-7032.7705,-6944.509,-6999.7456,-7115.3223,-7101.7676,-7078.592,-7094.7266,-7179.587,-7252.762,-7201.847,-7082.7446,-7021.124,-7078.9805,-7101.7227,-7058.668,-7053.156,-7084.0327,-7097.4546,-7062.854,-7055.3086,-7045.7334,-7060.215,-7178.43,-7230.657,-7189.905,-7243.9487,-7329.713,-7235.272,-7120.58,-7154.9175,-7107.7227,-7027.2397,-7142.267,-7247.6655,-7173.256,-7051.907,-6999.2056,-7026.9336,-7026.7646,-7045.456,-7132.8047,-7131.418,-7150.1055,-7214.9814,-7212.621,-7175.9487,-7129.053,-7174.9614,-7165.245,-7061.5796,-7026.6533,-7015.1777,-7106.614,-7176.073,-7097.855,-7035.423,-7086.654,-7222.2407,-7244.089,-7231.391,-7260.5806,-7207.5547,-7209.439,-7233.24,-7211.3447,-7201.89,-7136.576,-7083.482,-7058.0493,-7063.5757,-7193.8794,-7246.409,-7165.1807,-7190.3564,-7259.4263,-7300.099,-7308.182,-7196.9893,-7143.584,-7143.7695,-7064.9097,-7061.5312,-7127.0283,-7166.1978,-7157.553,-7136.8726,-7140.817,-7129.2456,-7158.639,-7170.7314,-7127.7183,-7116.582,-7136.551,-7174.967,-7178.7295,-7212.5845,-7229.608,-7127.9043,-7132.4937,-7260.4736,-7373.6562,-7438.0273,-7381.289,-7285.9487,-7216.79,-7160.0386,-7141.93,-7150.7007,-7215.5537,-7255.1675,-7156.194,-7073.512,-7146.27,-7212.775,-7147.4863,-7099.645,-7099.027,-7090.595,-7131.0063,-7171.3516,-7196.9175,-7232.1963,-7266.854,-7310.299,-7336.7017,-7329.1177,-7267.333,-7209.124,-7212.957,-7223.6284,-7173.0356,-7125.073,-7200.666,-7245.9165,-7231.133,-7268.867,-7232.4307,-7189.4316,-7150.032,-7080.773,-7125.7144,-7133.9214,-7108.567,-7160.3945,-7189.592,-7201.184,-7166.921,-7155.635,-7192.489,-7204.8555,-7262.5337,-7266.391,-7198.106,-7231.411,-7319.594,-7323.027,-7290.486,-7288.72,-7266.1274,-7274.3667,-7265.222,-7169.5254,-7130.3735,-7136.2563,-7204.8027,-7287.608,-7208.478,-7210.3647,-7325.7354,-7247.4814,-7130.122,-7191.2993,-7279.448,-7292.1763,-7321.4644,-7287.221,-7137.79,-7110.716,-7166.241,-7136.4297,-7165.029,-7242.89,-7217.5703,-7165.7295,-7200.2197,-7235.5947,-7191.824,-7201.5625,-7255.4575,-7259.155,-7284.575,-7289.371,-7257.3794,-7226.787,-7177.21,-7177.9365,-7256.539,-7320.1206,-7262.1533,-7186.8276,-7192.0757,-7213.3643,-7267.957,-7289.874,-7336.7515,-7432.1147,-7380.7183,-7306.1133,-7289.7876,-7291.988,-7323.177,-7267.47,-7216.091,-7245.478,-7265.474,-7294.1074,-7318.43,-7299.299,-7235.966,-7181.498,-7197.5586,-7217.4243,-7196.735,-7161.4507,-7150.491,-7217.5522,-7326.831,-7421.497,-7400.596,-7252.092,-7213.408,-7238.6973,-7150.4316,-7137.3633,-7184.198,-7166.663,-7230.7773,-7292.8403,-7276.3477,-7313.877,-7353.3765,-7350.4717,-7367.661,-7409.615,-7439.45,-7425.942,-7365.6987,-7290.3354,-7286.8867,-7344.2607,-7270.928,-7155.7886,-7209.7495,-7219.364,-7214.3325,-7280.653,-7192.3325,-7189.4854,-7321.6787,-7335.9004,-7304.988,-7217.2305,-7147.764,-7185.866,-7226.6763,-7237.97,-7246.238,-7308.703,-7416.969,-7444.73,-7342.105,-7244.632,-7174.0005,-7133.538,-7191.6914,-7197.579,-7164.39,-7207.8853,-7276.1836,-7338.445,-7363.78,-7341.7334,-7243.944,-7145.467,-7120.843,-7129.0166,-7261.6025,-7388.254,-7310.8257,-7235.8066,-7227.2515,-7208.954,-7284.065,-7385.612,-7399.1304,-7352.5356,-7331.883,-7390.2393,-7403.9556,-7340.956,-7259.5103,-7186.477,-7161.016,-7182.9897,-7268.234,-7264.749,-7175.0884,-7196.3564,-7265.554,-7309.8853,-7257.9106,-7186.6665,-7208.138,-7234.3623,-7313.3364,-7388.318,-7394.377,-7355.343,-7283.724,-7276.355,-7264.677,-7265.249,-7290.8223,-7265.627,-7269.571,-7243.976,-7222.2085,-7246.6,-7216.503,-7216.884,-7211.23,-7174.8374,-7232.416,-7328.1763,-7394.6304,-7378.9956,-7283.708,-7241.172,-7243.2847,-7239.764,-7249.5117,-7266.6084,-7304.5356,-7364.902,-7446.2686,-7431.037,-7294.085,-7264.9727,-7274.4023,-7227.5996,-7269.883,-7281.0054,-7209.97,-7253.6094,-7365.0176,-7374.33,-7321.547,-7289.1006,-7236.3115,-7172.622,-7144.2324,-7136.074,-7170.3335,-7217.577,-7241.54,-7246.584,-7217.2305,-7249.423,-7339.3115,-7402.241,-7401.369,-7308.998,-7259.312,-7302.4253,-7372.5635,-7353.564,-7248.2026,-7234.03,-7205.665,-7186.4688,-7275.739,-7357.854,-7454.2017,-7443.12,-7343.9634,-7347.0854,-7327.4277,-7233.6084,-7179.873,-7241.382,-7353.7393,-7329.33,-7185.9688,-7177.27,-7286.078,-7279.925,-7257.339,-7274.4663,-7266.9907,-7278.2637,-7249.0444,-7234.5396,-7257.652,-7268.697,-7291.436,-7281.1836,-7299.683,-7334.3994,-7311.406,-7329.361,-7404.376,-7450.0806,-7424.929,-7333.058,-7244.4873,-7261.8013,-7325.1367,-7285.514,-7225.693,-7234.7827,-7217.8467,-7208.375,-7230.6333,-7235.6,-7262.0996,-7255.5283,-7246.129,-7283.8486,-7291.91,-7303.8994,-7336.373,-7378.9604,-7401.0884,-7388.944,-7428.3354,-7525.458,-7603.133,-7569.658,-7470.49,-7335.926,-7156.6606,-7134.9443,-7212.385,-7198.72,-7200.099,-7210.578,-7258.582,-7465.2256,-7542.1494,-7339.2695,-7265.9805,-7378.766,-7381.4043,-7298.385,-7249.4595,-7284.9697,-7281.1733,-7208.4897,-7215.734,-7221.027,-7276.1196,-7366.47,-7347.313,-7327.053,-7335.924,-7364.2905,-7344.164,-7274.0835,-7252.859,-7247.2383,-7278.7153,-7307.926,-7311.4067,-7281.115,-7237.833,-7291.0244,-7362.1636,-7438.817,-7445.396,-7301.1504,-7255.233,-7322.9243,-7321.231,-7279.43,-7261.784,-7233.516,-7220.602,-7269.128,-7307.184,-7333.7217,-7373.798,-7410.88,-7370.4067,-7244.993,-7184.78,-7161.8276,-7177.0195,-7264.6514,-7357.1953,-7469.294,-7485.4316,-7425.7573,-7397.288,-7340.491,-7356.1724,-7370.215,-7284.9,-7295.5527,-7327.4463,-7288.001,-7284.0127,-7326.0,-7370.3965,-7297.8174,-7227.584,-7336.2573,-7423.2017,-7399.4106,-7369.957,-7350.4326,-7314.5317,-7302.8613,-7324.4585,-7283.3657,-7249.581,-7263.2173,-7268.819,-7289.7383,-7282.36,-7274.7905,-7285.96,-7307.9375,-7338.761,-7327.8237,-7357.676,-7367.831,-7252.99,-7159.5464,-7173.797,-7203.3438,-7196.056,-7245.13,-7321.2246,-7342.8955,-7364.1714,-7365.0513,-7338.448,-7310.942,-7294.3003,-7319.288,-7322.2896,-7300.061,-7300.9746,-7281.8057,-7247.6987,-7285.732,-7394.096,-7445.601,-7489.0503,-7558.2363,-7494.0625,-7371.636,-7319.7666,-7356.0845,-7363.4175,-7226.338,-7217.008,-7280.982,-7179.2446,-7179.5557,-7253.644,-7210.6133,-7190.0137,-7188.41,-7185.459,-7230.9453,-7259.7627,-7271.272,-7287.549,-7310.6,-7381.2124,-7446.0024,-7433.3135,-7390.6787,-7405.7017,-7479.042,-7505.306,-7440.455,-7365.845,-7380.1465,-7418.0137,-7320.4346,-7189.498,-7157.1,-7154.855,-7167.958,-7209.6045,-7286.202,-7331.9604,-7317.78,-7376.756,-7431.282,-7384.494,-7334.3438,-7299.0796,-7290.564,-7300.512,-7293.002,-7317.255,-7377.502,-7393.9644,-7348.103,-7311.178,-7302.856,-7286.9346,-7252.45,-7269.743,-7396.3115,-7472.001,-7402.6934,-7292.8193,-7236.4023,-7299.632,-7310.7393,-7186.619,-7160.9175,-7229.9507,-7276.147,-7260.231,-7230.324,-7312.611,-7351.4233,-7301.827,-7385.463,-7514.5347,-7478.1787,-7350.218,-7305.854,-7313.391,-7322.035,-7362.7373,-7370.072,-7326.1387,-7303.1333,-7320.4146,-7290.5005,-7277.6787,-7339.8438,-7313.731,-7261.0654,-7249.599,-7302.533,-7422.3613,-7402.6914,-7321.8545,-7335.4043,-7330.7383,-7252.633,-7219.388,-7262.4575,-7314.7173,-7327.251,-7283.424,-7290.499,-7276.9146,-7259.752,-7343.5854,-7368.006,-7420.724,-7503.197,-7432.829,-7316.973,-7262.7456,-7258.3306,-7242.12,-7189.343,-7178.91,-7288.2173,-7442.5835,-7499.5454,-7440.382,-7343.323,-7323.5244,-7348.5366,-7313.4233,-7264.023,-7251.3296,-7249.817,-7257.984,-7298.9873,-7331.1665,-7330.469,-7312.9854,-7282.6353,-7291.076,-7309.207,-7305.461,-7361.036,-7414.8633,-7387.8604,-7369.179,-7369.352,-7372.06,-7442.5547,-7541.4526,-7622.8936,-7664.3574,-7581.026,-7424.255,-7289.2637,-7214.311,-7242.2505,-7270.069,-7227.371,-7204.9863,-7209.2715,-7212.985,-7246.3555,-7290.4365,-7334.1973,-7384.011,-7342.5645,-7235.8335,-7281.856,-7422.454,-7406.4375,-7315.638,-7316.2734,-7314.6284,-7336.432,-7434.628,-7477.2363,-7506.811,-7495.3784,-7399.5703,-7409.5327,-7453.284,-7424.8276,-7418.383,-7438.165,-7443.992,-7389.048,-7304.197,-7257.8438,-7248.6406,-7251.718,-7295.285,-7369.2725,-7357.2183,-7344.1523,-7417.266,-7490.629,-7532.3477,-7494.301,-7422.1655,-7405.048,-7417.2236,-7376.694,-7296.2515,-7254.676,-7199.2886,-7183.431,-7224.363,-7229.775,-7288.9775,-7372.245,-7366.377
-7361.4253,-7447.6934,-7502.331,-7426.3335,-7315.304,-7224.5723,-7197.3184,-7267.985,-7338.7754,-7378.406,-7441.742,-7463.035,-7429.6533,-7417.411,-7381.6187,-7363.513,-7405.55,-7438.495,-7475.692,-7497.125,-7457.721,-7354.5537,-7290.868,-7322.7456,-7363.932,-7424.827,-7408.222,-7347.2793,-7397.289,-7407.148,-7398.2026,-7425.1973,-7390.9688,-7363.173,-7378.0776,-7413.072,-7372.527,-7287.931,-7340.57,-7425.082,-7448.029,-7465.058,-7427.7266,-7367.4756,-7367.2944,-7391.38,-7410.329,-7425.9224,-7409.82,-7400.231,-7418.264,-7423.689,-7422.3574,-7378.638,-7284.3936,-7181.7783,-7096.708,-7089.964,-7196.5737,-7406.8945,-7577.761,-7629.763,-7682.688,-7690.7935,-7606.665,-7562.2085,-7625.246,-7667.2124,-7541.2134,-7410.628,-7404.4766,-7431.1987,-7439.7734,-7387.561,-7388.3945,-7468.841,-7452.8154,-7441.054,-7481.8022,-7465.894,-7456.4824,-7432.176,-7375.1733,-7340.502,-7321.341,-7336.419,-7363.351,-7362.191,-7349.404,-7397.447,-7488.716,-7557.5923,-7627.7524,-7636.7065,-7568.088,-7507.6045,-7481.255,-7451.653,-7352.3833,-7265.465,-7297.1465,-7341.758,-7317.6665,-7304.9546,-7335.652,-7347.677,-7296.0293,-7256.5083,-7284.823,-7302.618,-7362.717,-7476.392,-7513.2275,-7521.7563,-7530.549,-7470.4746,-7406.673,-7414.2095,-7448.625,-7469.2676,-7482.0503,-7462.157,-7403.7236,-7367.9546,-7340.065,-7286.0176,-7315.1885,-7402.6616,-7447.8506,-7494.2285,-7494.9805,-7464.898,-7466.174,-7460.632,-7452.0234,-7408.6196,-7386.6895,-7416.345,-7443.359,-7464.7544,-7425.0034,-7427.074,-7461.047,-7453.6187,-7509.6484,-7525.254,-7511.331,-7520.1836,-7518.271,-7541.0063,-7516.468,-7510.102,-7491.591,-7439.9097,-7446.2593,-7426.076,-7474.44,-7557.2954,-7551.8955,-7497.0957,-7389.2173,-7397.4116,-7470.984,-7431.4116,-7354.976,-7289.595,-7342.635,-7462.4917,-7469.744,-7450.1387,-7472.7563,-7482.0884,-7458.9434,-7410.797,-7385.876,-7432.086,-7456.2104,-7416.0337,-7440.505,-7477.879,-7443.2305,-7428.602,-7451.892,-7505.7285,-7556.5957,-7524.9185,-7465.125,-7428.688,-7396.305,-7372.9424,-7356.074,-7378.0977,-7410.784,-7400.592,-7415.65,-7443.735,-7459.6494,-7476.423,-7477.0566,-7504.1543,-7510.361,-7492.9663,-7490.845,-7496.624,-7536.066,-7480.0166,-7350.8213,-7308.2803,-7343.277,-7401.0503,-7412.155,-7428.886,-7434.6934,-7402.301,-7428.1323,-7420.035,-7369.1113,-7381.9707,-7426.0034,-7424.1157,-7394.953,-7412.1016,-7418.333,-7392.5635,-7375.0537,-7392.116,-7450.337,-7483.8496,-7505.662,-7514.904,-7490.6426,-7467.5767,-7433.053,-7390.6177,-7370.759,-7387.085,-7404.761,-7417.409,-7462.359,-7433.293,-7333.8066,-7390.6323,-7516.3,-7507.2817,-7444.7446,-7409.2583,-7491.6562,-7593.818,-7488.6216,-7349.5347,-7339.0864,-7398.2515,-7435.376,-7376.5645,-7355.1626,-7401.1694,-7413.0527,-7412.834,-7372.482,-7323.0083,-7361.829,-7409.0107,-7356.8716,-7285.523,-7335.802,-7427.051,-7422.3027,-7417.686,-7463.734,-7477.2876,-7438.07,-7377.3003,-7359.4897,-7371.6284,-7410.1064,-7494.289,-7483.695,-7387.1616,-7378.2065,-7423.6006,-7417.0234,-7362.6436,-7324.0474,-7335.997,-7348.5195,-7369.7734,-7403.741,-7372.316,-7362.934,-7414.9375,-7406.46,-7355.373,-7314.513,-7313.0474,-7344.958,-7352.7725,-7347.083,-7329.969,-7320.493,-7339.226,-7336.844,-7313.853,-7305.1284,-7329.792,-7377.4688,-7387.2197,-7339.491,-7277.2407,-7247.5864,-7258.719,-7263.6924,-7271.836,-7287.526,-7281.046,-7340.419,-7409.887,-7356.0073,-7303.4126,-7326.494,-7328.465,-7292.7544,-7282.5664,-7263.295,-7206.5254,-7182.509,-7178.8525,-7197.8755,-7235.1704,-7233.143,-7222.5063,-7215.3774,-7214.016,-7226.413,-7267.228,-7308.2886,-7263.848,-7265.4346,-7325.134,-7281.899,-7270.653,-7294.1177,-7221.972,-7136.0093,-7096.082,-7108.9834,-7105.5283,-7094.4346,-7095.72,-7053.2046,-7081.536,-7122.0186,-7114.471,-7146.4214,-7121.1216,-7080.0186,-7097.135,-7120.044,-7129.9414,-7129.5884,-7119.2314,-7068.0557,-7100.9434,-7214.8364,-7204.8325,-7130.1772,-7105.2666,-7098.0215,-7083.413,-7052.207,-7043.3267,-7107.976,-7127.274,-7056.0674,-7042.848,-7072.295,-7100.8154,-7115.6675,-7051.684,-6975.551,-6982.1343,-7008.938,-6977.4805,-7005.6562,-7096.0854,-7121.0405,-7152.58,-7228.8438,-7286.1973,-7291.4375,-7273.761,-7244.402,-7167.033,-7131.337,-7136.6133,-7101.656,-7120.206,-7171.1113,-7164.628,-7140.528,-7103.0273,-7081.565,-7106.915,-7170.066,-7224.112,-7217.8936,-7208.226,-7190.0347,-7161.0376,-7141.2437,-7140.9097,-7197.407,-7222.2344,-7236.959,-7266.3228,-7239.249,-7239.0464,-7267.7803,-7268.455,-7249.9873,-7249.828,-7298.43,-7333.0786,-7340.0117,-7333.7637,-7294.691,-7239.7417,-7238.7754,-7275.539,-7247.738,-7250.841,-7296.095,-7294.433,-7317.537,-7309.458,-7272.804,-7262.286,-7250.451,-7268.8447,-7259.734,-7258.9106,-7280.7173,-7279.9927,-7319.221,-7312.3433,-7298.6255,-7337.277,-7304.7812,-7282.795,-7312.1055,-7322.164,-7329.4463,-7307.775,-7291.813,-7313.9077,-7330.181,-7349.718,-7355.5156,-7354.9897,-7351.291,-7321.345,-7332.2324,-7362.5327,-7355.98,-7344.3423,-7351.4424,-7361.654,-7340.0444,-7331.723,-7354.6426,-7364.1167,-7345.6143,-7353.884,-7451.325,-7491.3423,-7414.9385,-7345.118,-7294.6963,-7289.8145,-7312.3545,-7313.658,-7334.1714,-7360.3564,-7357.4097,-7346.2544,-7363.581,-7372.397,-7352.763,-7375.9136,-7446.093,-7486.1436,-7417.606,-7331.774,-7340.1978,-7337.6973,-7332.65,-7371.395,-7369.2285,-7370.5454,-7398.77,-7393.785,-7388.0957,-7405.101,-7415.741,-7423.862,-7444.9146,-7452.087,-7450.7456,-7491.446,-7536.4434,-7511.057,-7435.27,-7371.492,-7353.963,-7341.3296,-7301.324,-7302.33,-7331.4517,-7347.098,-7366.192,-7384.2305,-7450.536,-7495.808,-7445.658,-7422.805,-7431.0103,-7426.6436,-7436.8965,-7433.441,-7417.259,-7407.047,-7376.1216,-7340.2305,-7365.9,-7415.981,-7420.294,-7419.298,-7437.031,-7443.4414,-7444.871,-7452.807,-7443.033,-7422.164,-7406.5503,-7390.213,-7398.896,-7433.579,-7464.1787,-7458.869,-7424.7812,-7421.9175,-7415.5366,-7384.2866,-7407.524,-7457.898,-7459.7993,-7438.58,-7442.581,-7467.894,-7486.853,-7457.646,-7388.058,-7376.4873,-7424.5415,-7437.3833,-7405.307,-7384.317,-7412.7686,-7455.8354,-7462.9595,-7469.324,-7496.9844,-7476.389,-7430.348,-7461.076,-7498.112,-7476.295,-7473.4106,-7459.8706,-7411.559,-7407.1953,-7411.983,-7385.2007,-7372.0444,-7374.8726,-7383.978,-7392.5537,-7391.2915,-7383.946,-7390.3394,-7444.188,-7472.169,-7428.0938,-7415.334,-7420.062,-7396.3223,-7439.897,-7520.7705,-7518.964,-7472.8345,-7449.24,-7456.44,-7488.8647,-7508.917,-7486.138,-7420.538,-7360.045,-7347.7095,-7357.445,-7378.562,-7411.061,-7437.5063,-7459.7715,-7466.377,-7452.3574,-7421.4604,-7404.7295,-7432.3794,-7446.1367,-7449.1465,-7463.149,-7447.0107,-7437.7974,-7442.2563,-7423.8213,-7419.6953,-7460.949,-7497.9565,-7487.5767,-7457.8438,-7429.685,-7419.699,-7436.7397,-7457.4995,-7475.4233,-7520.2544,-7585.4443,-7575.5137,-7478.8867,-7419.8604,-7452.498,-7487.9946,-7480.147,-7495.692,-7500.5913,-7455.5723,-7431.7285,-7423.438,-7419.474,-7424.121,-7420.9233,-7432.236,-7430.884,-7408.2974,-7407.9,-7426.351,-7438.6724,-7448.786,-7465.2886,-7460.984,-7455.368,-7464.9277,-7470.1274,-7482.419,-7477.841,-7485.001,-7541.1133,-7585.71,-7594.525,-7609.71,-7614.7373,-7503.1064,-7384.155,-7396.7417,-7402.427,-7401.259,-7442.0605,-7461.2725,-7456.639,-7443.667,-7449.797,-7448.862,-7503.038,-7588.336,-7539.4507,-7477.114,-7481.855,-7491.644,-7487.0293,-7424.3955,-7397.2217,-7418.281,-7411.5107,-7420.909,-7425.505,-7417.1616,-7430.7485,-7466.1636,-7513.5703,-7516.7036,-7487.0527,-7480.4146,-7481.646,-7450.92,-7411.1343,-7420.2485,-7431.423,-7424.596,-7449.999,-7468.167,-7455.9033,-7431.1772,-7411.8706,-7423.4927,-7442.1465,-7480.142,-7512.9165,-7485.374,-7481.054,-7492.831,-7477.3755,-7498.9956,-7511.0757,-7501.336,-7497.096,-7451.7896,-7422.2886,-7438.858,-7455.3584,-7477.6616,-7508.6377,-7545.93,-7551.515,-7496.0923,-7444.48,-7446.4233,-7452.876,-7430.3555,-7442.8223,-7476.722,-7466.754,-7457.788,-7474.1577,-7468.9155,-7448.9375,-7463.476,-7483.7563,-7496.1675,-7519.5967,-7518.4907,-7507.391,-7463.5024,-7406.641,-7426.2886,-7458.067,-7474.101,-7471.022,-7444.546,-7468.8706,-7486.1562,-7475.448,-7483.993,-7485.7104,-7494.6562,-7483.924,-7450.981,-7444.347,-7444.506,-7448.719,-7460.8584,-7486.9688,-7525.7793,-7545.271,-7541.685,-7514.8633,-7501.78,-7506.081,-7470.1284,-7466.287,-7520.4346,-7531.645,-7510.086,-7485.1655,-7478.0073,-7487.889,-7467.9253,-7464.434,-7464.3047,-7440.608,-7457.146,-7507.926,-7534.1763,-7505.2812,-7506.2065,-7556.7773,-7565.4404,-7556.5503,-7546.382,-7526.9346,-7516.7573,-7525.255,-7529.985,-7497.3145,-7511.5176,-7538.895,-7469.4595,-7414.1436,-7433.9614,-7450.969,-7446.4634,-7450.089,-7448.665,-7435.0757,-7466.165,-7519.711,-7527.821,-7502.54,-7490.7866,-7509.5376,-7532.853,-7538.1904,-7514.185,-7495.395,-7520.1753,-7548.8013,-7558.5615,-7559.2886,-7529.3647,-7479.2764,-7473.125,-7508.665,-7518.0156,-7491.823,-7481.346,-7490.1416,-7474.059,-7456.583,-7458.786,-7477.0903,-7526.3633,-7533.9204,-7489.598,-7480.548,-7494.661,-7523.5557,-7551.8647,-7535.293,-7531.891,-7529.258,-7487.3486,-7518.348,-7582.066,-7524.4316,-7437.029,-7421.0254,-7440.9395,-7473.748,-7468.9414,-7466.598,-7494.7505,-7482.7485,-7499.869,-7514.859,-7458.9917,-7461.0073,-7488.5107,-7465.5654,-7454.201,-7462.4824,-7482.41,-7495.6475,-7490.249,-7483.54,-7496.6157,-7525.922,-7512.929,-7491.907,-7510.372,-7518.9,-7488.018,-7428.1704,-7422.2207,-7479.673,-7510.007,-7508.514,-7472.889,-7423.2656,-7418.878,-7432.594,-7440.1133,-7460.4536,-7465.873,-7461.951,-7490.997,-7511.537,-7520.0034,-7538.264,-7514.4175,-7469.117,-7466.8345,-7476.832,-7442.471,-7403.368,-7383.944,-7375.5703,-7436.6953,-7500.7334,-7487.301,-7476.808,-7500.795,-7525.078,-7511.8677,-7476.9033,-7463.8076,-7467.6885,-7491.539,-7512.485,-7498.5884,-7439.676,-7419.6533,-7486.119,-7514.976,-7525.868,-7535.763,-7490.4224,-7476.1694,-7469.145,-7456.9077,-7485.5107,-7501.8394,-7514.9385,-7520.297,-7512.228,-7518.741,-7514.2783,-7501.9087,-7499.478,-7482.976,-7439.0806,-7451.5957,-7485.318,-7450.136,-7464.38,-7496.932,-7493.557,-7520.716,-7523.0986,-7517.5527,-7497.92,-7457.298,-7466.601,-7481.193,-7479.9937,-7470.034,-7447.437,-7457.8325,-7507.3174,-7527.022,-7503.7617,-7505.908,-7501.672,-7474.246,-7484.7705,-7493.8525,-7476.895,-7476.614,-7498.9214,-7525.244,-7535.423,-7524.352,-7511.887,-7519.7314,-7533.312,-7520.328,-7494.3013,-7498.4375,-7504.6133,-7490.167,-7493.093,-7475.7734,-7442.2153,-7452.584,-7486.0327,-7487.208,-7438.9355,-7459.3853,-7539.4644,-7531.5796,-7521.7944,-7550.033,-7515.4473,-7464.847,-7463.3237,-7470.875,-7465.3096,-7488.2285,-7508.1997,-7492.8066,-7494.5933,-7531.9844,-7592.15,-7588.2964,-7508.535,-7464.4,-7451.27,-7443.2803,-7429.7085,-7444.558,-7516.674,-7519.1636,-7451.105,-7430.649,-7459.988,-7485.2017,-7483.999,-7475.0483,-7463.6597,-7475.578,-7530.2896,-7570.082,-7542.711,-7492.5825,-7485.1855,-7480.909,-7439.9717,-7427.042,-7490.648,-7544.714,-7510.1377,-7492.931,-7533.5776,-7508.5225,-7450.939,-7431.8833,-7433.088,-7459.5566,-7452.292,-7451.714,-7492.2485,-7489.3813,-7501.537,-7507.205,-7475.7456,-7485.2114,-7481.7827,-7464.4634,-7467.218,-7495.671,-7546.0176,-7549.306,-7545.0347,-7531.8477,-7484.5244,-7462.2646,-7435.539,-7458.44,-7548.1816,-7584.7407,-7566.2017,-7504.7812,-7441.317,-7464.2437,-7517.3223,-7521.4116,-7481.6465,-7426.503,-7414.182,-7422.922,-7418.673,-7452.2227,-7485.316,-7461.373,-7428.188,-7464.5186,-7502.6675,-7450.911,-7403.934,-7396.737,-7425.5537,-7448.8867,-7444.1787,-7485.794,-7489.3857,-7516.7593,-7552.493,-7471.5635,-7474.6997,-7505.3257,-7494.85,-7517.808,-7501.8135,-7554.787,-7637.9644,-7675.5835,-7639.94,-7463.5576,-7385.9004,-7448.618,-7471.6978,-7451.1196,-7425.2686,-7451.4946,-7488.384,-7452.3394,-7410.376,-7451.3784,-7502.0244,-7482.0786,-7457.2686,-7462.56,-7457.4775,-7441.3667,-7444.41,-7462.016,-7490.9224,-7500.3716,-7462.7363,-7464.762,-7530.894,-7566.0933,-7536.147,-7493.7505,-7452.5386,-7426.3604,-7453.019,-7488.0864,-7549.6226,-7616.562,-7590.035,-7539.9644,-7550.3394,-7565.4043,-7495.302,-7424.882,-7426.6353,-7415.3496,-7417.359,-7423.1304,-7415.041,-7437.495,-7456.6846,-7477.6562,-7474.574,-7467.1245,-7497.798,-7491.725,-7468.746,-7484.16,-7512.673,-7497.753,-7461.363,-7474.526,-7480.7295,-7475.1357,-7503.5015,-7522.9995,-7505.7896,-7493.8203,-7551.581,-7615.4585,-7622.409,-7577.506,-7495.9893,-7475.922,-7491.949,-7504.474,-7513.797,-7450.8223,-7416.3564,-7430.3887,-7440.5845,-7478.678,-7463.4995,-7446.674,-7462.7725,-7467.087,-7516.5454,-7538.2686,-7514.944,-7482.241,-7454.6475,-7504.4346,-7552.7666,-7558.078,-7586.8574,-7631.7163,-7641.0713,-7610.917,-7574.8394,-7516.881,-7499.727,-7510.5815,-7477.7876,-7474.694,-7498.7275,-7548.2373,-7577.373,-7518.0703,-7470.744,-7466.836,-7485.0137
-7502.3857,-7505.7744,-7512.601,-7481.7734,-7459.4204,-7463.557,-7436.054,-7466.4204,-7537.285,-7547.119,-7559.1826,-7554.061,-7531.9517,-7536.897,-7511.073,-7517.0493,-7545.396,-7525.5986,-7519.408,-7511.3584,-7509.906,-7577.998,-7648.682,-7631.58,-7563.634,-7531.0117,-7527.9634,-7504.816,-7473.771,-7477.4487,-7504.441,-7515.5205,-7517.506,-7541.599,-7571.4097,-7563.9043,-7522.7915,-7492.242,-7509.6016,-7526.2046,-7507.777,-7522.9214,-7536.978,-7499.6553,-7476.5327,-7479.278,-7489.0894,-7502.3833,-7512.789,-7528.485,-7554.902,-7572.0444,-7546.3184,-7514.3926,-7529.6,-7584.3784,-7600.957,-7534.9863,-7503.088,-7554.324,-7602.2944,-7585.934,-7500.9585,-7435.763,-7438.424,-7452.841,-7464.9194,-7502.528,-7544.0747,-7557.1855,-7537.869,-7503.3354,-7534.5376,-7616.189,-7624.628,-7594.4824,-7560.6133,-7479.002,-7445.8613,-7477.7363,-7473.011,-7475.4097,-7499.9946,-7493.933,-7498.1274,-7518.163,-7516.096,-7510.738,-7528.881,-7546.582,-7536.461,-7543.2666,-7558.7866,-7537.232,-7524.0474,-7520.8794,-7516.6587,-7541.819,-7575.651,-7574.1504,-7531.388,-7530.0234,-7566.506,-7559.0796,-7560.392,-7568.211,-7527.438,-7483.97,-7474.2036,-7499.1914,-7502.939,-7451.6333,-7412.9937,-7409.72,-7420.2837,-7434.515,-7452.135,-7474.9683,-7479.8105,-7479.3623,-7469.541,-7455.269,-7477.1333,-7478.3213,-7473.1865,-7503.9297,-7503.8145,-7504.0264,-7525.075,-7515.54,-7463.8506,-7418.8867,-7475.3545,-7553.73,-7548.8345,-7508.123,-7460.76,-7461.305,-7491.2305,-7478.6035,-7466.033,-7449.5586,-7440.1104,-7468.0215,-7488.7646,-7494.0903,-7464.321,-7441.367,-7473.432,-7483.3936,-7480.201,-7495.6133,-7488.0225,-7470.0044,-7462.425,-7455.4316,-7457.917,-7490.7593,-7511.7793,-7506.725,-7545.46,-7598.65,-7613.964,-7599.1606,-7557.696,-7547.1177,-7550.427,-7479.771,-7423.254,-7455.43,-7472.805,-7486.7896,-7509.6094,-7467.916,-7467.098,-7501.9185,-7480.9707,-7490.524,-7501.9663,-7473.3584,-7473.932,-7488.875,-7491.4136,-7484.5947,-7487.407,-7503.842,-7501.2017,-7501.6743,-7512.6377,-7516.2993,-7527.2583,-7526.075,-7518.102,-7517.501,-7504.3867,-7496.757,-7500.3467,-7493.81,-7486.005,-7494.509,-7495.9307,-7485.7593,-7489.2393,-7514.1753,-7588.218,-7656.9287,-7669.8955,-7659.124,-7591.1406,-7503.615,-7470.283,-7483.5,-7510.463,-7519.5996,-7532.7817,-7525.432,-7493.626,-7482.249,-7477.847,-7478.893,-7477.772,-7483.272,-7482.588,-7466.486,-7480.648,-7488.9233,-7481.9136,-7496.827,-7503.304,-7489.4526,-7484.9497,-7502.407,-7543.154,-7600.7383,-7613.9033,-7580.619,-7584.7773,-7610.94,-7621.254,-7613.5615,-7554.6475,-7493.924,-7482.8164,-7478.0376,-7475.778,-7487.378,-7510.97,-7529.242,-7506.9814,-7490.3022,-7515.9785,-7556.0674,-7603.1597,-7636.763,-7632.312,-7603.4272,-7570.229,-7528.927,-7482.418,-7462.34,-7470.121,-7491.1255,-7515.5815,-7516.0825,-7510.1772,-7520.3604,-7527.9097,-7534.497,-7539.07,-7534.7046,-7518.611,-7496.87,-7505.4214,-7535.7603,-7552.7,-7553.828,-7535.913,-7527.0635,-7531.796,-7517.194,-7516.601,-7531.1475,-7532.153,-7543.74,-7570.5454,-7601.2046,-7598.6953,-7541.5273,-7507.8066,-7530.0845,-7526.0156,-7497.767,-7511.6484,-7537.632,-7547.869,-7539.003,-7526.372,-7549.0386,-7572.945,-7586.735,-7595.73,-7576.1143,-7551.232,-7544.8027,-7559.5527,-7565.262,-7566.732,-7587.357,-7575.1133,-7538.6113,-7522.536,-7516.667,-7506.37,-7500.625,-7531.5283,-7564.0522,-7550.7896,-7533.25,-7538.8784,-7551.5474,-7570.4707,-7571.282,-7535.728,-7524.2095,-7554.0845,-7575.2793,-7598.7515,-7625.0005,-7612.8394,-7604.37,-7610.6807,-7568.9653,-7535.3623,-7551.1777,-7559.5244,-7549.2417,-7535.3813,-7532.35,-7536.755,-7551.7915,-7572.643,-7578.2393,-7568.826,-7553.59,-7571.2,-7597.6465,-7597.0024,-7572.786,-7522.195,-7513.8784,-7554.962,-7573.677,-7572.2397,-7574.015,-7546.481,-7519.625,-7532.7974,-7527.6597,-7554.6904,-7589.443,-7566.8667,-7565.7437,-7550.773,-7535.036,-7552.1597,-7560.6597,-7553.8926,-7527.855,-7529.407,-7535.3135,-7552.6484,-7595.261,-7599.2554,-7579.931,-7538.237,-7525.053,-7562.1323,-7595.8794,-7632.6816,-7644.0684,-7623.82,-7570.628,-7524.6543,-7543.9805,-7547.453,-7534.0474,-7542.6914,-7541.4663,-7563.1724,-7588.315,-7593.925,-7603.897,-7584.246,-7557.8853,-7559.7217,-7569.9727,-7573.132,-7574.68,-7601.63,-7616.0127,-7589.983,-7564.4883,-7580.759,-7608.497,-7576.128,-7556.57,-7568.9414,-7553.933,-7565.362,-7576.008,-7570.119,-7584.9805,-7595.5186,-7612.06,-7620.273,-7595.9443,-7584.397,-7614.0864,-7614.4478,-7572.7075,-7569.9795,-7566.818,-7550.686,-7568.526,-7589.337,-7614.863,-7631.955,-7608.305,-7577.827,-7602.41,-7665.6543,-7661.7036,-7599.0625,-7559.3506,-7562.6025,-7589.773,-7574.9907,-7567.9106,-7597.588,-7560.2554,-7534.038,-7548.586,-7548.565,-7581.3447,-7598.3887,-7622.5083,-7653.16,-7606.254,-7575.8975,-7621.594,-7652.4517,-7622.409,-7601.196,-7592.29,-7590.3555,-7623.677,-7609.3374,-7578.112,-7585.6104,-7569.8047,-7547.4863,-7569.3467,-7625.16,-7638.8003,-7587.2495,-7556.4585,-7565.016,-7556.9272,-7544.772,-7554.3755,-7574.1245,-7602.6055,-7624.744,-7634.16,-7625.529,-7619.652,-7648.162,-7650.854,-7623.2812,-7609.145,-7594.5166,-7587.5747,-7569.538,-7558.55,-7583.164,-7592.677,-7603.583,-7624.992,-7628.003,-7619.6616,-7607.8955,-7598.788,-7567.4307,-7554.739,-7588.396,-7601.96,-7624.814,-7650.967,-7603.276,-7549.315,-7567.475,-7623.0015,-7667.4087,-7682.69,-7668.952,-7640.389,-7625.7837,-7608.326,-7603.6445,-7668.336,-7697.7373,-7651.5273,-7608.701,-7553.274,-7539.9507,-7568.029,-7577.391,-7607.025,-7612.165,-7602.3657,-7638.2095,-7657.803,-7663.0225,-7686.7197,-7659.3813,-7593.736,-7597.673,-7643.089,-7658.6235,-7663.612,-7658.001,-7627.085,-7584.232,-7539.0176,-7524.4243,-7572.012,-7625.473,-7633.902,-7609.186,-7580.6055,-7586.666,-7595.799,-7597.9185,-7606.8457,-7573.313,-7549.034,-7574.4556,-7581.8984,-7557.161,-7543.78,-7600.7734,-7666.415,-7655.3354,-7650.9976,-7678.4106,-7674.3516,-7639.669,-7608.1177,-7604.306,-7608.503,-7608.656,-7623.64,-7661.279,-7691.886,-7656.4097,-7565.9526,-7522.525,-7575.841,-7640.34,-7653.7773,-7643.759,-7641.931,-7662.529,-7657.9116,-7642.2524,-7664.743,-7660.502,-7619.9565,-7565.976,-7535.381,-7570.38,-7606.367,-7630.126,-7611.71,-7548.36,-7549.3213,-7583.4062,-7578.15,-7562.877,-7575.8486,-7590.286,-7603.073,-7642.4385,-7653.5034,-7616.4556,-7555.6865,-7538.979,-7590.28,-7618.655,-7636.4097,-7649.1377,-7641.3945,-7638.002,-7603.4146,-7593.0317,-7633.6035,-7627.683,-7563.7734,-7519.3,-7538.7104,-7569.2793,-7558.685,-7533.544,-7531.5054,-7536.6143,-7535.826,-7543.6143,-7550.01,-7560.125,-7564.8667,-7570.9424,-7602.7734,-7648.771,-7671.7803,-7620.954,-7567.3877,-7570.3833,-7577.1396,-7566.2603,-7570.4204,-7610.0845,-7604.687,-7571.6885,-7564.827,-7545.2734,-7553.2085,-7571.48,-7566.4985,-7561.325,-7568.8657,-7611.575,-7644.818,-7641.748,-7618.6245,-7608.8447,-7624.359,-7609.8887,-7604.4746,-7629.0586,-7630.3203,-7643.4136,-7676.268,-7694.0947,-7679.204,-7646.8945,-7651.2427,-7663.6465,-7656.26,-7674.9946,-7708.191,-7692.661,-7644.4727,-7630.2236,-7616.7295,-7589.372,-7593.879,-7595.308,-7589.482,-7599.374,-7602.3926,-7603.135,-7603.436,-7599.95,-7605.691,-7627.275,-7646.2476,-7646.597,-7647.687,-7641.9253,-7634.4165,-7640.7725,-7634.111,-7630.1772,-7634.899,-7633.465,-7654.6006,-7687.753,-7686.548,-7645.83,-7614.593,-7628.496,-7658.985,-7673.9043,-7672.22,-7662.7847,-7657.5923,-7658.807,-7651.6772,-7646.955,-7654.27,-7632.3735,-7604.4575,-7630.4893,-7658.34,-7672.5864,-7721.0415,-7741.9443,-7712.064,-7690.806,-7670.296,-7670.2275,-7684.4175,-7650.701,-7627.3486,-7617.162,-7587.1143,-7610.7495,-7651.693,-7682.342,-7699.288,-7653.1157,-7626.317,-7626.139,-7616.3564,-7643.813,-7669.5166,-7670.207,-7666.133,-7662.7007,-7656.468,-7638.367,-7632.205,-7643.5176,-7664.7974,-7689.0205,-7694.3975,-7690.0034,-7688.927,-7663.6973,-7638.5815,-7654.7656,-7657.369,-7652.5537,-7666.0806,-7649.4355,-7650.983,-7719.046,-7779.808,-7768.66,-7736.6694,-7713.9067,-7655.1885,-7623.653,-7646.4663,-7643.923,-7621.2354,-7626.0303,-7655.57,-7677.624,-7683.4175,-7673.639,-7665.6694,-7668.34,-7668.172,-7673.2725,-7664.6265,-7659.1406,-7678.1724,-7690.066,-7696.4834,-7692.988,-7682.0547,-7688.571,-7742.4546,-7800.976,-7775.558,-7723.139,-7663.971,-7615.323,-7661.329,-7699.866,-7716.47,-7748.258,-7725.661,-7708.597,-7689.8867,-7661.727,-7661.8193,-7634.2944,-7632.9453,-7680.2134,-7704.2803,-7676.5103,-7638.24,-7659.175,-7688.6343,-7696.5776,-7701.313,-7692.175,-7701.226,-7716.941,-7723.2104,-7735.6855,-7728.692,-7703.618,-7691.3467,-7687.7017,-7685.707,-7688.1187,-7713.691,-7744.9453,-7724.654,-7706.917,-7709.476,-7689.142,-7690.0293,-7714.6436,-7747.583,-7758.305,-7753.9033,-7749.4185,-7687.4385,-7671.0723,-7738.929,-7758.6523,-7725.0713,-7703.024,-7708.8213,-7704.9883,-7692.263,-7683.3623,-7675.068,-7680.9517,-7689.222,-7696.7544,-7680.8955,-7688.078,-7738.8735,-7754.158,-7784.9536,-7815.144,-7762.0117,-7699.2827,-7676.6367,-7680.8735,-7699.0854,-7698.314,-7686.523,-7692.2334,-7697.2275,-7700.6235,-7711.2773,-7731.323,-7769.317,-7799.223,-7815.4644,-7795.45,-7724.494,-7670.9775,-7679.3374,-7727.3926,-7758.912,-7748.52,-7727.946,-7732.9253,-7731.5024,-7708.505,-7721.837,-7748.3384,-7756.2734,-7747.7344,-7721.6143,-7715.661,-7724.7817,-7737.129,-7743.2905,-7740.0776,-7743.6123,-7727.62,-7710.2603,-7708.603,-7716.7134,-7752.558,-7766.2686,-7747.459,-7742.0415,-7742.022,-7748.0093,-7755.0557,-7765.618,-7778.766,-7760.991,-7748.031,-7755.33,-7743.3447,-7719.1494,-7719.6367,-7761.024,-7781.7935,-7767.473,-7748.3423,-7718.371,-7731.725,-7753.46,-7742.574,-7758.9253,-7748.7773,-7718.781,-7721.916,-7708.506,-7713.037,-7759.76,-7787.2153,-7777.3247,-7766.966,-7787.7603,-7790.761,-7744.3975,-7700.5166,-7691.035,-7710.8203,-7726.3525,-7731.664,-7732.0435,-7720.8457,-7733.6216,-7734.745,-7725.472,-7747.8447,-7758.396,-7756.7344,-7728.7446,-7721.672,-7754.76,-7760.446,-7772.1836,-7767.3003,-7769.996,-7783.698,-7769.757,-7809.3193,-7808.3193,-7758.6626,-7767.12,-7742.8364,-7715.6504,-7735.646,-7748.61,-7759.3164,-7739.3223,-7708.085,-7712.011,-7739.2783,-7770.581,-7726.115,-7662.59,-7703.405,-7763.4233,-7801.854,-7809.0527,-7785.598,-7812.137,-7819.96,-7803.541,-7803.7646,-7788.551,-7810.6074,-7837.854,-7813.9375,-7772.5903,-7783.1426,-7826.026,-7799.573,-7743.5303,-7712.274,-7729.36,-7772.464,-7768.817,-7755.1143,-7735.721,-7716.5127,-7752.7207,-7790.1636,-7772.7017,-7753.905,-7778.026,-7801.317,-7785.0894,-7757.646,-7767.556,-7792.4985,-7798.7856,-7767.529,-7726.1694,-7769.8706,-7805.6196,-7794.2075,-7840.9175,-7868.771,-7827.255,-7740.9453,-7667.139,-7654.7793,-7656.2397,-7682.9155,-7732.5625,-7785.3096,-7825.412,-7808.224,-7766.695,-7732.769,-7736.1035,-7783.537,-7794.8164,-7774.4814,-7774.3535,-7755.71,-7709.041,-7689.7124,-7707.89,-7741.963,-7775.6333,-7792.8877,-7808.304,-7846.288,-7865.137,-7830.247,-7798.8457,-7777.8726,-7754.05,-7753.892,-7767.4443,-7794.3076,-7821.2686,-7836.724,-7807.6807,-7757.278,-7768.341,-7792.3706,-7808.4683,-7794.7305,-7771.823,-7831.8066,-7860.5137,-7806.2417,-7749.7915,-7719.8076,-7723.6294,-7742.061,-7803.619,-7854.3853,-7852.3784,-7880.7817,-7886.7285,-7836.883,-7815.641,-7825.5083,-7809.9595,-7771.912,-7762.675,-7755.004,-7744.6763,-7745.242,-7731.32,-7740.947,-7752.143,-7747.334,-7747.9697,-7740.124,-7743.181,-7734.733,-7719.659,-7720.4375,-7714.8306,-7722.009,-7733.4214,-7745.885,-7774.3936,-7779.024,-7750.8096,-7747.2437,-7792.9414,-7832.6504,-7831.376,-7812.6914,-7800.8965,-7785.9277,-7735.7134,-7682.7417,-7670.4624,-7667.455,-7673.236,-7705.1797,-7726.4224,-7727.3945,-7730.59,-7755.3936,-7795.811,-7797.0093,-7747.6636,-7713.982,-7717.715,-7701.283,-7679.82,-7702.277,-7725.5415,-7747.3105,-7778.6313,-7782.8433,-7768.479,-7738.627,-7715.5977,-7730.8394,-7743.1235,-7741.9717,-7746.2773,-7753.2344,-7760.6567,-7742.945,-7718.4272,-7720.1084,-7706.3296,-7697.6973,-7739.12,-7769.4683,-7779.0957,-7775.2266,-7736.1323,-7723.595,-7743.0967,-7764.9604,-7768.363,-7729.021,-7728.554,-7780.9414,-7806.1255,-7786.259,-7758.524,-7749.2397,-7719.19,-7694.372,-7729.541,-7784.959,-7820.8535,-7809.991,-7764.0723,-7737.0283,-7744.609,-7761.795,-7747.6313,-7715.9893,-7705.6484,-7700.373,-7694.482,-7692.576,-7681.2217,-7681.708,-7694.9375,-7693.4917,-7696.705,-7703.421,-7697.729,-7704.1323,-7727.7007,-7748.424,-7771.058,-7803.1655,-7783.62,-7724.078,-7727.193,-7757.77,-7776.72,-7786.7173,-7759.212,-7745.036,-7744.3247,-7733.1895,-7731.0728,-7729.1724,-7746.383,-7741.399,-7699.979,-7697.665,-7721.624,-7729.427,-7725.1245,-7734.7554,-7741.918,-7743.363,-7807.449,-7894.803,-7911.177,-7827.2266,-7704.6816,-7670.7925,-7687.2056,-7689.133,-7728.625,-7762.1357,-7742.1084
-7713.1855,-7696.442,-7682.769,-7700.4355,-7754.9365,-7773.124,-7757.7554,-7771.598,-7799.5796,-7797.396,-7768.0947,-7731.9536,-7697.3955,-7700.0435,-7727.4233,-7734.1064,-7737.6016,-7740.399,-7734.8477,-7740.2095,-7749.6343,-7747.7095,-7748.3413,-7748.169,-7734.5693,-7735.197,-7747.1133,-7759.5664,-7795.0483,-7827.871,-7826.4287,-7801.5513,-7777.545,-7765.8364,-7747.5776,-7721.389,-7724.936,-7762.3394,-7758.6465,-7724.3877,-7738.025,-7741.6587,-7724.937,-7734.472,-7728.413,-7712.6396,-7704.1904,-7705.9272,-7729.9883,-7743.189,-7728.8955,-7719.218,-7739.7603,-7793.026,-7856.518,-7855.523,-7803.34,-7779.301,-7770.0425,-7779.545,-7795.685,-7793.3594,-7793.391,-7766.496,-7728.695,-7711.8594,-7697.6323,-7702.8667,-7711.017,-7703.775,-7705.6323,-7704.966,-7698.7466,-7695.654,-7690.611,-7696.152,-7713.922,-7731.0366,-7733.599,-7724.002,-7742.269,-7801.1343,-7840.358,-7826.31,-7800.3193,-7769.901,-7737.458,-7742.4585,-7756.4453,-7750.2324,-7771.767,-7821.152,-7819.0566,-7768.652,-7739.16,-7714.9194,-7710.2246,-7765.2363,-7816.276,-7815.9956,-7768.471,-7724.6465,-7731.6787,-7733.1714,-7730.579,-7752.517,-7754.0664,-7753.602,-7787.3164,-7839.781,-7812.353,-7705.7036,-7698.036,-7729.4746,-7737.5737,-7810.285,-7819.41,-7755.782,-7733.563,-7735.005,-7740.059,-7730.2935,-7752.4316,-7777.0854,-7753.027,-7756.442,-7778.091,-7776.0215,-7732.1514,-7667.7544,-7639.9556,-7671.426,-7745.136,-7767.771,-7742.0625,-7738.7866,-7764.921,-7791.6284,-7773.5244,-7763.891,-7786.11,-7779.7446,-7744.2188,-7732.5757,-7751.7554,-7743.5923,-7751.049,-7783.3394,-7775.6133,-7753.518,-7730.645,-7738.6577,-7765.386,-7748.8047,-7727.1045,-7720.808,-7716.6772,-7719.207,-7717.0254,-7722.173,-7765.69,-7807.9985,-7808.6987,-7795.7607,-7763.2104,-7753.05,-7792.92,-7792.7334,-7760.7554,-7764.005,-7778.834,-7766.724,-7750.9316,-7754.3228,-7762.0273,-7755.3315,-7738.6387,-7767.9697,-7795.575,-7770.4683,-7755.698,-7735.6665,-7719.809,-7725.013,-7722.483,-7736.9604,-7764.273,-7798.347,-7828.04,-7808.1333,-7776.9165,-7794.9385,-7798.88,-7766.861,-7752.916,-7741.622,-7731.1865,-7726.6426,-7743.1196,-7773.318,-7775.435,-7782.3643,-7795.272,-7794.637,-7777.063,-7739.4756,-7725.707,-7732.8325,-7736.6475,-7756.3613,-7794.992,-7838.167,-7857.5435,-7837.4277,-7816.683,-7786.7583,-7739.0884,-7730.645,-7740.493,-7746.941,-7742.2817,-7727.371,-7753.302,-7781.7607,-7804.9736,-7830.0737,-7793.0864,-7722.396,-7693.948,-7727.2715,-7762.011,-7766.2466,-7768.195,-7779.584,-7795.851,-7770.182,-7735.23,-7747.685,-7782.404,-7820.2593,-7830.9907,-7835.088,-7832.973,-7792.5864,-7757.715,-7735.3535,-7731.4624,-7743.5376,-7752.7925,-7781.7363,-7799.8726,-7783.9556,-7768.5767,-7795.206,-7823.837,-7799.952,-7768.7134,-7737.231,-7741.1396,-7790.4585,-7802.5874,-7803.768,-7793.407,-7756.0044,-7746.6284,-7764.521,-7802.138,-7816.254,-7781.9395,-7772.662,-7794.806,-7816.4434,-7838.433,-7808.112,-7744.765,-7755.788,-7824.9995,-7866.7573,-7857.0786,-7820.69,-7782.764,-7759.294,-7767.493,-7802.822,-7825.5547,-7777.0527,-7704.956,-7686.217,-7688.6865,-7710.45,-7739.534,-7751.6616,-7766.224,-7765.548,-7772.2827,-7795.974,-7800.2397,-7797.757,-7794.3716,-7773.048,-7752.796,-7768.9414,-7783.563,-7787.143,-7822.916,-7867.875,-7895.056,-7840.2036,-7718.0347,-7666.2603,-7687.424,-7721.057,-7740.9653,-7749.8125,-7767.127,-7768.8374,-7765.752,-7768.3745,-7769.5923,-7802.065,-7863.3247,-7893.096,-7831.4463,-7732.3047,-7711.0757,-7741.6553,-7759.5396,-7766.034,-7767.913,-7798.9478,-7838.7554,-7856.792,-7865.904,-7840.728,-7810.4434,-7804.2974,-7778.457,-7740.443,-7736.1543,-7731.779,-7707.7085,-7729.307,-7766.9575,-7769.71,-7771.987,-7788.0933,-7793.4136,-7777.577,-7767.5103,-7758.0376,-7759.1274,-7779.9907,-7783.903,-7784.9087,-7788.144,-7782.9053,-7774.6597,-7775.2446,-7808.714,-7829.6523,-7805.233,-7805.672,-7836.071,-7817.7563,-7795.816,-7830.58,-7847.092,-7838.5234,-7821.349,-7771.149,-7750.043,-7762.652,-7778.0654,-7792.848,-7775.304,-7738.136,-7707.9443,-7740.1157,-7797.5586,-7792.2534,-7789.441,-7786.5693,-7767.3696,-7760.835,-7737.1206,-7738.1514,-7763.3047,-7769.948,-7761.946,-7765.557,-7799.528,-7794.403,-7772.07,-7783.509,-7783.715,-7786.07,-7785.3945,-7780.587,-7787.037,-7776.4507,-7773.414,-7795.7725,-7831.003,-7857.653,-7853.68,-7857.067,-7870.151,-7839.0757,-7782.221,-7754.763,-7742.4937,-7720.011,-7718.029,-7749.7354,-7786.5938,-7816.3833,-7842.765,-7858.5684,-7858.104,-7835.551,-7792.4834,-7761.658,-7750.463,-7750.658,-7771.9185,-7779.3223,-7765.3037,-7790.496,-7851.6143,-7913.995,-7948.3726,-7892.133,-7801.853,-7757.39,-7726.1514,-7724.2383,-7740.2476,-7741.085,-7760.9937,-7784.6978,-7786.0156,-7786.3237,-7789.9644,-7787.2324,-7786.977,-7771.89,-7765.5737,-7785.1685,-7777.818,-7779.7197,-7791.4043,-7788.636,-7821.2334,-7852.343,-7838.951,-7808.687,-7822.5293,-7862.291,-7836.8105,-7796.3813,-7792.274,-7789.4194,-7784.969,-7764.219,-7740.7256,-7734.7954,-7742.842,-7765.961,-7781.526,-7805.417,-7800.1885,-7750.3677,-7763.671,-7794.7095,-7786.565,-7784.745,-7783.97,-7808.4897,-7829.986,-7802.699,-7760.084,-7761.8853,-7821.8193,-7843.5513,-7822.7734,-7805.53,-7766.4155,-7745.741,-7757.2847,-7757.046,-7749.053,-7762.3037,-7783.8066,-7780.977,-7779.4263,-7804.9756,-7835.0273,-7844.807,-7844.662,-7845.913,-7819.8687,-7765.5693,-7746.51,-7784.257,-7819.4175,-7826.5093,-7786.0977,-7728.738,-7743.6816,-7773.665,-7781.6826,-7791.673,-7783.0684,-7789.098,-7794.766,-7792.442,-7799.636,-7798.1387,-7803.8936,-7792.6177,-7755.9224,-7734.5356,-7759.683,-7833.735,-7884.556,-7863.341,-7823.1436,-7806.043,-7791.191,-7794.4585,-7809.894,-7803.989,-7807.191,-7833.8438,-7873.846,-7882.995,-7851.5522,-7812.155,-7758.4976,-7757.8486,-7789.0444,-7754.9453,-7710.843,-7711.842,-7737.323,-7738.138,-7735.6797,-7762.94,-7784.424,-7816.1895,-7853.6304,-7863.358,-7821.167,-7790.0547,-7841.943,-7860.869,-7811.2207,-7785.3394,-7794.7397,-7797.337,-7793.1294,-7808.326,-7816.873,-7818.6562,-7813.2935,-7805.825,-7812.6655,-7795.538,-7776.0,-7787.385,-7812.8496,-7841.68,-7876.9067,-7911.895,-7901.3076,-7836.4497,-7767.3667,-7751.2783,-7790.913,-7817.463,-7797.457,-7788.0273,-7816.1924,-7844.316,-7877.5366,-7877.5034,-7832.132,-7817.9854,-7800.431,-7786.1846,-7829.3716,-7865.563,-7860.8184,-7811.9766,-7747.6074,-7741.8706,-7776.407,-7789.1353,-7793.7886,-7828.4614,-7852.6514,-7839.4736,-7839.285,-7837.2197,-7808.1294,-7805.897,-7835.0825,-7844.9355,-7830.991,-7817.9775,-7811.801,-7809.359,-7813.3535,-7813.2534,-7792.8647,-7784.3047,-7800.8184,-7799.56,-7792.185,-7792.9434,-7790.503,-7800.2734,-7808.9053,-7811.501,-7837.5127,-7902.5864,-7951.1025,-7920.7163,-7883.5513,-7868.708,-7810.529,-7759.245,-7780.888,-7811.6714,-7782.687,-7747.062,-7775.1177,-7832.821,-7845.3237,-7809.71,-7791.0684,-7785.6006,-7764.4375,-7768.625,-7792.5103,-7804.0137,-7828.957,-7854.6562,-7844.7188,-7828.062,-7825.7046,-7827.322,-7822.9385,-7822.9087,-7851.2324,-7868.8594,-7858.3774,-7861.4443,-7848.7676,-7793.847,-7774.673,-7803.729,-7807.01,-7802.08,-7813.2285,-7810.6216,-7790.478,-7785.8545,-7795.856,-7772.1445,-7758.2056,-7799.4956,-7847.2046,-7869.65,-7888.7305,-7890.246,-7844.339,-7835.7373,-7854.297,-7853.694,-7896.061,-7931.546,-7929.518,-7907.758,-7906.389,-7921.22,-7823.5386,-7706.3306,-7704.1113,-7771.3774,-7818.2954,-7788.8623,-7782.1265,-7796.478,-7792.483,-7806.4634,-7803.975,-7832.552,-7856.601,-7837.2104,-7845.67,-7861.247,-7892.157,-7914.2773,-7899.439,-7875.111,-7843.337,-7826.3994,-7818.1396,-7847.2563,-7889.1245,-7872.3066,-7871.5337,-7900.5645,-7878.57,-7836.207,-7841.298,-7867.1245,-7856.5723,-7811.719,-7771.009,-7766.5527,-7800.7637,-7841.471,-7853.567,-7859.806,-7856.968,-7810.5415,-7780.8076,-7785.076,-7790.736,-7798.813,-7799.4766,-7824.5986,-7849.255,-7847.383,-7872.255,-7883.735,-7876.536,-7907.817,-7932.2065,-7915.866,-7887.4395,-7845.484,-7807.095,-7818.565,-7829.4214,-7819.9507,-7826.9233,-7812.4546,-7806.9775,-7825.733,-7818.128,-7794.033,-7782.0537,-7810.462,-7850.689,-7880.1357,-7881.8516,-7832.3975,-7806.804,-7815.8413,-7812.388,-7819.257,-7850.201,-7884.3975,-7871.5293,-7825.6523,-7837.5454,-7888.9756,-7912.441,-7905.476,-7897.21,-7918.889,-7904.6196,-7857.8237,-7846.6626,-7797.0684,-7760.9185,-7783.3857,-7766.5684,-7765.56,-7799.6626,-7824.303,-7829.1157,-7814.843,-7840.6733,-7855.4937,-7843.807,-7847.1797,-7838.4805,-7861.7744,-7878.8467,-7860.6255,-7890.407,-7929.596,-7903.6665,-7834.903,-7798.7563,-7814.7593,-7830.03,-7826.739,-7818.7007,-7816.531,-7821.326,-7822.539,-7823.32,-7832.331,-7831.9243,-7825.152,-7835.8667,-7847.0967,-7846.5054,-7834.513,-7840.317,-7878.7285,-7875.9907,-7842.0874,-7837.3955,-7827.933,-7807.396,-7807.619,-7814.643,-7816.485,-7858.8164,-7923.4185,-7934.4106,-7912.0845,-7872.058,-7824.6494,-7805.594,-7798.6934,-7798.437,-7804.8774,-7821.96,-7828.332,-7820.3716,-7827.596,-7811.263,-7811.362,-7841.2715,-7839.1416,-7850.7256,-7871.697,-7881.0396,-7898.8096,-7884.9023,-7844.7163,-7841.0435,-7869.6924,-7882.0576,-7870.908,-7847.9585,-7831.061,-7826.6587,-7829.2427,-7845.202,-7860.929,-7892.654,-7942.439,-7919.546,-7837.302,-7836.0244,-7880.082,-7866.04,-7839.6465,-7811.249,-7805.2427,-7832.4873,-7805.256,-7794.4253,-7839.0107,-7851.2637,-7846.9595,-7835.1533,-7820.898,-7821.5796,-7825.4717,-7840.412,-7850.1475,-7841.5796,-7836.9126,-7850.6323,-7862.0537,-7861.172,-7863.701,-7857.37,-7847.3516,-7853.532,-7849.989,-7844.369,-7880.75,-7922.0215,-7939.4062,-7935.926,-7876.92,-7815.743,-7812.207,-7826.216,-7827.253,-7817.0884,-7813.551,-7835.311,-7894.0664,-7952.2905,-7947.0195,-7893.163,-7824.8164,-7789.4204,-7810.3726,-7806.999,-7810.773,-7862.7583,-7853.2227,-7815.3887,-7821.5254,-7843.9956,-7861.286,-7850.21,-7842.809,-7840.734,-7839.324,-7844.0933,-7832.3857,-7846.5405,-7855.7573,-7838.843,-7846.3647,-7850.691,-7850.752,-7850.2764,-7840.978,-7837.938,-7821.9077,-7820.644,-7876.606,-7928.5825,-7908.57,-7883.642,-7899.1113,-7873.8867,-7841.375,-7849.751,-7837.121,-7836.863,-7840.329,-7814.0317,-7844.974,-7891.4067,-7872.7324,-7849.027,-7853.138,-7859.9624,-7845.384,-7823.4614,-7823.97,-7836.9146,-7842.617,-7835.6836,-7830.5693,-7836.8657,-7866.833,-7883.654,-7864.1436,-7881.381,-7879.17,-7835.986,-7854.966,-7895.564,-7918.887,-7911.7563,-7878.752,-7878.9004,-7896.6206,-7898.259,-7866.3022,-7834.177,-7814.1,-7795.6426,-7827.551,-7863.933,-7869.2856,-7878.9756,-7883.4927,-7861.2026,-7812.6836,-7814.7207,-7861.836,-7843.8267,-7808.716,-7830.6143,-7845.3237,-7837.9097,-7843.365,-7848.9385,-7861.063,-7880.888,-7875.281,-7864.749,-7887.567,-7883.257,-7840.1313,-7834.115,-7855.013,-7883.749,-7911.8706,-7922.0977,-7913.642,-7884.7534,-7864.312,-7851.981,-7847.7905,-7860.1553,-7863.453,-7848.173,-7825.7183,-7827.271,-7833.368,-7818.9775,-7824.81,-7833.5015,-7820.143,-7830.1187,-7856.4404,-7867.8257,-7898.947,-7939.6655,-7935.509,-7907.164,-7889.7837,-7865.827,-7822.521,-7809.441,-7848.1733,-7876.347,-7885.614,-7902.587,-7915.7847,-7915.906,-7879.726,-7830.406,-7819.7036,-7816.6143,-7820.6313,-7878.966,-7935.89,-7929.001,-7894.0327,-7867.6587,-7878.17,-7910.186,-7879.2124,-7832.216,-7829.248,-7816.374,-7821.757,-7825.3276,-7809.8594,-7836.0527,-7862.4985,-7880.7,-7887.889,-7862.197,-7833.667,-7833.709,-7864.9644,-7839.7524,-7786.086,-7810.003,-7850.0674,-7836.8247,-7828.405,-7869.8486,-7891.1353,-7886.096,-7877.783,-7861.5493,-7868.1816,-7863.2656,-7866.9673,-7879.2646,-7870.853,-7886.362,-7889.0947,-7862.186,-7834.585,-7860.2266,-7915.3447,-7891.364,-7838.5645,-7815.4253,-7829.488,-7853.937,-7844.6157,-7841.1455,-7839.7524,-7845.4116,-7860.459,-7855.4985,-7875.6846,-7910.8574,-7915.034,-7879.25,-7818.596,-7804.6777,-7819.025,-7799.4526,-7787.5503,-7815.5874,-7844.136,-7824.0947,-7835.121,-7920.02,-7936.37,-7894.2075,-7876.388,-7858.2188,-7858.37,-7867.839,-7869.5913,-7861.0947,-7852.313,-7887.5493,-7905.1426,-7877.7163,-7856.1187,-7830.133,-7814.8486,-7817.0806,-7817.4517,-7821.579,-7834.0205,-7844.9395,-7838.1055,-7831.9307,-7830.933,-7827.786,-7827.084,-7809.2046,-7794.2036,-7821.3755,-7867.1934,-7889.4043,-7889.549,-7873.4116,-7858.3423,-7883.647,-7900.7617,-7861.2563,-7834.206,-7860.226,-7885.226,-7884.147,-7875.6147,-7862.48,-7858.2305,-7865.4736,-7861.9277,-7845.1196,-7843.9106,-7846.986,-7823.6147,-7812.7715,-7817.5444,-7823.3447,-7837.146,-7840.924,-7846.0703,-7859.424,-7891.0347,-7916.8916,-7900.3906,-7873.9204,-7853.581,-7854.4473,-7856.7593,-7854.93,-7873.8096,-7857.4346,-7837.813,-7845.849,-7850.4854,-7879.9644,-7887.791,-7880.7563,-7908.419,-7925.2227,-7903.3438,-7843.0522,-7811.7705,-7839.5244,-7880.4336,-7912.0527,-7907.739,-7891.705,-7867.7666,-7840.8257,-7841.365,-7835.1885,-7833.7397
-7844.0547,-7852.7183,-7855.7993,-7840.048,-7838.112,-7834.4663,-7822.4385,-7819.545,-7820.4785,-7850.886,-7887.5337,-7916.6274,-7927.838,-7910.2173,-7915.131,-7916.8735,-7891.602,-7884.8,-7886.4995,-7878.256,-7874.9614,-7881.442,-7878.9697,-7847.533,-7820.359,-7839.646,-7863.5747,-7855.1714,-7840.3,-7831.234,-7830.559,-7835.698,-7853.17,-7878.804,-7880.9297,-7883.4106,-7882.662,-7856.5703,-7854.9937,-7866.233,-7854.0444,-7844.0586,-7860.4336,-7883.6016,-7876.804,-7864.9434,-7859.5444,-7849.1904,-7868.083,-7904.6543,-7917.1265,-7912.113,-7915.464,-7917.3887,-7898.0522,-7881.2173,-7873.468,-7856.132,-7854.8613,-7878.581,-7886.0845,-7896.0605,-7933.2925,-7951.603,-7941.367,-7919.905,-7886.9385,-7851.0405,-7851.3496,-7906.4185,-7946.6084,-7947.09,-7927.4126,-7894.041,-7880.7866,-7863.708,-7875.1045,-7930.6934,-7908.0205,-7866.4243,-7893.887,-7915.4565,-7913.012,-7882.279,-7844.062,-7834.154,-7845.495,-7877.824,-7888.6455,-7884.3423,-7882.1216,-7864.494,-7882.649,-7902.522,-7879.2656,-7866.939,-7880.7686,-7912.929,-7935.123,-7948.1855,-7954.3706,-7921.8286,-7875.5425,-7837.9575,-7831.933,-7850.568,-7860.513,-7878.4077,-7891.421,-7889.915,-7897.438,-7906.838,-7898.256,-7893.8027,-7924.2456,-7962.0337,-7978.658,-7969.6567,-7946.729,-7947.9473,-7958.5034,-7923.7524,-7877.662,-7872.646,-7884.508,-7899.619,-7922.6494,-7946.8247,-7935.2217,-7893.8037,-7882.6836,-7877.6997,-7867.2266,-7859.2954,-7852.4526,-7860.6436,-7863.197,-7876.1113,-7885.9346,-7884.193,-7898.1875,-7918.6377,-7944.1245,-7949.5483,-7945.565,-7944.236,-7926.251,-7893.043,-7869.584,-7898.8477,-7939.11,-7964.4385,-7971.4556,-7949.151,-7933.4736,-7896.5283,-7856.7764,-7858.541,-7871.1963,-7880.3643,-7892.2236,-7916.2075,-7907.777,-7866.088,-7867.017,-7901.909,-7910.802,-7889.6553,-7884.936,-7887.1445,-7860.18,-7845.5737,-7869.8887,-7885.2456,-7882.0654,-7884.741,-7874.0405,-7859.0884,-7867.046,-7900.6924,-7931.397,-7919.3022,-7915.5054,-7963.868,-7991.62,-7937.5283,-7871.884,-7863.4004,-7882.2734,-7903.6006,-7893.4595,-7860.8735,-7869.2153,-7905.137,-7917.4116,-7916.4414,-7943.018,-7962.68,-7936.8906,-7878.55,-7829.925,-7846.573,-7884.973,-7900.2925,-7913.117,-7907.794,-7898.1333,-7929.0747,-7961.971,-7954.118,-7938.313,-7911.9644,-7880.745,-7884.443,-7909.571,-7915.4146,-7891.203,-7888.7207,-7900.8975,-7904.4995,-7925.844,-7951.616,-7978.458,-7962.514,-7928.901,-7958.7725,-7987.817,-7974.2075,-7922.825,-7874.414,-7880.766,-7890.838,-7900.914,-7911.6436,-7893.6987,-7868.9717,-7845.874,-7868.5264,-7931.9165,-7962.5293,-7962.125,-7943.6597,-7923.634,-7936.15,-7963.932,-7947.344,-7886.499,-7861.9927,-7902.437,-7952.1245,-7956.7017,-7944.5254,-7951.693,-7954.233,-7931.8926,-7873.0776,-7833.512,-7841.738,-7871.0986,-7945.1353,-7975.7197,-7919.746,-7889.387,-7885.9043,-7859.994,-7835.01,-7866.295,-7930.329,-7934.9697,-7898.3496,-7894.089,-7905.934,-7905.5605,-7942.9287,-8022.957,-8057.724,-8001.3525,-7918.559,-7878.271,-7847.9653,-7839.696,-7873.099,-7879.6763,-7885.111,-7894.1997,-7872.3247,-7882.8584,-7907.0654,-7911.1143,-7915.9116,-7905.6006,-7889.908,-7875.0537,-7885.1973,-7948.357,-7980.545,-7939.999,-7917.8423,-7925.2656,-7923.002,-7903.6226,-7862.615,-7886.7725,-7940.9795,-7921.411,-7908.9727,-7929.4883,-7944.7656,-7953.3184,-7967.3447,-7967.7026,-7914.934,-7899.2397,-7917.5747,-7894.3354,-7878.1797,-7867.7417,-7872.991,-7907.271,-7923.9272,-7921.971,-7923.1426,-7928.3677,-7915.277,-7910.068,-7916.6797,-7903.5723,-7906.899,-7908.414,-7902.7544,-7936.766,-7949.941,-7915.023,-7909.69,-7941.2856,-7959.6807,-7968.2505,-7983.6436,-7989.8716,-7968.215,-7925.9395,-7908.786,-7907.2476,-7871.1943,-7872.258,-7925.691,-7926.8433,-7908.8853,-7907.634,-7901.447,-7904.0293,-7884.263,-7882.823,-7913.7163,-7901.386,-7873.3823,-7864.578,-7873.654,-7888.761,-7899.0176,-7915.02,-7914.9253,-7911.3413,-7921.783,-7925.131,-7933.3125,-7947.114,-7941.559,-7923.5444,-7910.9478,-7902.7227,-7901.0854,-7903.0854,-7898.1577,-7898.992,-7926.8955,-7965.934,-7965.3115,-7933.813,-7953.7944,-8024.5435,-8033.762,-7962.412,-7910.5103,-7892.887,-7875.9956,-7881.2515,-7898.1885,-7915.523,-7937.7954,-7941.1997,-7932.599,-7924.7803,-7928.1333,-7935.758,-7918.004,-7906.9604,-7912.216,-7912.751,-7924.8286,-7948.9536,-7985.9844,-8008.419,-7978.472,-7936.505,-7925.288,-7932.8325,-7936.253,-7928.9663,-7943.1113,-7986.0654,-8009.4077,-8013.2314,-8002.6694,-7960.994,-7911.5234,-7883.745,-7897.163,-7915.934,-7913.2363,-7917.0737,-7927.4785,-7929.9727,-7927.5923,-7955.663,-7990.0376,-7993.7896,-7986.509,-7963.846,-7956.5376,-7949.7905,-7934.14,-7964.284,-7991.893,-8005.0977,-8006.7466,-7946.626,-7902.922,-7935.178,-7956.632,-7927.8457,-7911.801,-7929.493,-7940.786,-7936.3623,-7935.298,-7941.1465,-7947.179,-7951.523,-7958.2373,-7973.593,-8002.7656,-8035.274,-8018.8604,-7957.059,-7912.7153,-7874.286,-7855.3213,-7883.254,-7903.44,-7907.492,-7925.085,-7938.446,-7932.702,-7929.556,-7929.8145,-7924.314,-7930.5156,-7934.8677,-7921.5674,-7914.8345,-7933.8706,-7954.2993,-7948.8936,-7940.993,-7939.1416,-7942.9854,-7957.825,-7953.9717,-7940.742,-7947.5186,-7967.606,-7981.488,-7973.3,-7958.662,-7955.2446,-7961.7563,-7963.418,-7951.175,-7942.6577,-7954.19,-7965.7695,-7949.1553,-7948.6934,-7967.3345,-7950.943,-7935.174,-7930.44,-7931.806,-7976.0854,-8018.3364,-8015.8726,-7996.398,-7976.5547,-7949.0317,-7914.1885,-7932.0996,-7993.351,-7977.0366,-7934.81,-7946.3804,-7941.0625,-7933.2964,-7936.8765,-7927.5176,-7934.161,-7957.443,-7977.188,-7972.626,-7960.3794,-7945.6074,-7932.082,-7949.379,-7963.179,-7959.406,-7956.978,-7970.986,-7998.5254,-7990.31,-7941.8203,-7907.968,-7914.9277,-7922.96,-7933.651,-7954.976,-7941.4424,-7930.1924,-7938.577,-7926.2896,-7919.1187,-7936.179,-7962.189,-7984.7256,-8013.0312,-8039.2354,-8022.8276,-7997.699,-8001.1313,-7989.1943,-7951.892,-7928.533,-7943.667,-7984.7217,-8017.8022,-8000.075,-7942.5864,-7932.198,-7944.7046,-7939.115,-7957.3887,-7964.7056,-7960.8896,-7957.051,-7943.5454,-7950.92,-7949.0464,-7941.9336,-7937.6426,-7926.5107,-7950.107,-7987.177,-7999.5513,-7979.276,-7943.7427,-7935.326,-7948.8193,-7968.101,-7982.5854,-7973.0396,-7964.979,-7977.584,-7983.414,-7973.369,-7961.024,-7983.726,-8039.8604,-8057.9087,-8032.4243,-8005.3477,-7995.265,-7970.007,-7898.08,-7884.675,-7942.165,-7964.1963,-7975.657,-7976.0845,-7963.577,-7962.478,-7938.0854,-7940.628,-7969.147,-7966.8765,-7964.767,-7981.0835,-7994.7705,-7982.3228,-7976.956,-7987.36,-7978.2188,-7960.45,-7941.755,-7939.948,-7947.596,-7951.389,-7967.4805,-7985.1055,-8006.0293,-8007.977,-7982.443,-7970.0337,-7973.5103,-7979.349,-7970.8613,-7950.734,-7949.157,-7972.166,-7984.1553,-7958.3423,-7951.092,-7987.68,-7990.6177,-7961.543,-7968.0044,-7990.5596,-8001.1694,-8000.419,-7991.5605,-7986.2705,-7970.1685,-7953.5806,-7953.0513,-7963.223,-7972.024,-7951.5933,-7928.6675,-7932.998,-7939.647,-7938.7515,-7948.536,-7975.1245,-7992.5215,-7982.9346,-7961.2646,-7978.0425,-8037.0015,-8042.9893,-7985.1396,-7959.6914,-7987.2446,-7997.3213,-7971.572,-7970.8013,-7982.908,-7972.401,-7953.984,-7937.26,-7954.3716,-7985.9346,-8004.8267,-8038.6187,-8038.058,-7991.7837,-7986.0894,-8002.8677,-7987.052,-7986.678,-8030.859,-8084.6777,-8081.703,-8000.7983,-7955.896,-7969.028,-7968.2847,-7964.546,-7942.1924,-7929.4287,-7943.021,-7925.4526,-7917.2393,-7937.451,-7964.082,-8001.4956,-8025.509,-8043.4956,-8077.4775,-8091.002,-8033.0957,-7964.0674,-7971.5186,-8002.184,-7990.262,-7972.1987,-7995.351,-8011.631,-7983.0596,-7970.6587,-7975.596,-7994.5415,-8034.9214,-8032.8545,-7999.6665,-7972.481,-7967.514,-7976.9624,-7971.2324,-7976.0347,-7978.693,-7988.3633,-8002.3467,-7988.82,-7987.1553,-7983.3394,-7985.866,-7992.7925,-7976.1504,-7980.772,-7989.258,-7983.867,-7978.753,-7981.5205,-7992.634,-7993.1523,-7987.516,-7972.25,-7969.5396,-7981.77,-7987.7993,-7995.1025,-7988.687,-7987.8765,-8000.5596,-8008.798,-8023.787,-8034.677,-8039.328,-8032.6226,-8006.8955,-7992.753,-7984.241,-7968.14,-7967.892,-7972.8706,-7993.925,-8033.6333,-8024.949,-7986.6494,-7990.0146,-8024.2646,-8040.183,-8047.2256,-8080.9634,-8064.099,-7988.3403,-7981.6626,-8022.429,-8026.0977,-7993.5874,-7954.3887,-7952.3477,-7970.936,-7978.955,-7991.0586,-7993.86,-7981.584,-7983.946,-8002.772,-8008.7144,-7983.9395,-7971.3794,-8008.1357,-8027.528,-8020.077,-8027.2183,-7999.1704,-7975.8926,-7990.678,-7976.7695,-7970.3833,-7980.223,-7993.236,-8043.014,-8077.242,-8061.7803,-8029.574,-7994.0894,-7959.858,-7951.7954,-7956.052,-7955.324,-7987.4067,-8022.366,-8014.648,-7987.535,-7987.053,-8025.335,-8037.0435,-8022.7593,-8015.5405,-7993.3457,-7985.0913,-7992.04,-8003.3164,-8017.1914,-7999.3623,-7993.862,-8004.724,-7992.691,-7986.1074,-7987.4175,-7983.285,-7969.703,-7969.409,-7988.1943,-8004.4526,-8027.5874,-8045.9976,-8050.905,-8048.3364,-8050.308,-8024.259,-7956.066,-7950.975,-7978.722,-7967.25,-7978.422,-7978.431,-7958.1035,-7964.072,-7959.33,-7967.912,-7993.916,-8000.2295,-8025.64,-8044.4697,-8027.9897,-8037.4077,-8070.9355,-8076.9307,-8046.2734,-8000.2544,-7959.4165,-7954.5186,-7984.3203,-7982.0913,-7971.456,-7999.6904,-8014.7896,-8009.701,-7998.57,-7988.967,-7990.4497,-7987.1133,-7986.565,-7984.4106,-7973.2236,-7972.3906,-8007.301,-8022.573,-7986.086,-7990.114,-8005.1333,-7997.0454,-8008.4395,-8017.833,-8032.9155,-8029.322,-8008.3516,-8001.3022,-7987.1836,-7977.4263,-7964.7983,-7966.5034,-7998.634,-8020.8525,-8026.0483,-8015.4023,-7987.401,-7960.185,-7959.9336,-7989.777,-8030.1895,-8037.311,-8014.3716,-8031.1875,-8046.1035,-8030.1514,-8051.925,-8068.774,-8044.716,-8030.877,-8012.9946,-7981.0,-7965.6045,-7965.3364,-7976.042,-7987.4463,-7995.2188,-8006.662,-8030.2583,-8049.1885,-8005.853,-7959.554,-7995.181,-8051.891,-8073.9634,-8057.1924,-8029.0693,-8022.158,-8011.071,-7987.8677,-7998.0464,-8052.7495,-8071.989,-8020.1323,-7973.395,-7964.687,-7972.1377,-7974.626,-7967.336,-7969.309,-7975.3765,-7987.133,-8001.1284,-7991.356,-7965.418,-7944.9497,-7949.0186,-7981.1807,-8014.2993,-8016.6743,-8000.03,-7999.3066,-8009.2144,-8017.7314,-8021.1733,-8018.0005,-8010.3755,-7991.3096,-7982.8496,-8011.1406,-8032.994,-8024.8804,-8029.6143,-8026.458,-8011.457,-8023.183,-8022.9736,-8009.984,-8008.3735,-8013.9995,-8033.877,-8036.357,-8011.9077,-7987.205,-7983.7954,-8022.2124,-8053.739,-8027.376,-8003.9453,-8007.452,-7995.8916,-8000.3696,-8007.473,-7988.312,-8005.8984,-8038.563,-8030.7163,-8025.1978,-8026.817,-7995.155,-7967.221,-7974.627,-7987.9004,-8003.8774,-8015.01,-8007.4087,-7998.717,-7997.685,-8008.965,-8025.3647,-8029.879,-8030.0645,-8026.6885,-8019.6797,-8015.033,-7998.8364,-7991.3047,-8017.0117,-8058.1123,-8070.562,-8014.8843,-7968.415,-7994.46,-8023.056,-8026.233,-8014.2114,-7984.194,-7968.227,-7991.285,-8020.255,-8014.6274,-8000.4434,-8001.7915,-8007.159,-8012.0957,-8005.4683,-8005.173,-8022.34,-8013.514,-7978.384,-7960.9766,-7974.486,-7994.109,-8015.101,-8065.0967,-8090.9844,-8057.756,-8042.7896,-8046.522,-8021.534,-7980.3853,-7953.482,-7956.4897,-7971.6094,-7991.8403,-7991.4155,-7976.3833,-7987.271,-7974.481,-7958.7256,-7996.2134,-8034.7676,-8051.3906,-8045.0234,-8018.908,-8000.2734,-7996.535,-7995.2217,-7976.811,-7967.86,-7982.8633,-7989.9263,-8004.1387,-8033.633,-8048.7065,-8059.877,-8074.9844,-8061.399,-8022.0176,-8000.883,-8006.031,-8011.6694,-8007.5044,-7994.8535,-7992.7705,-8018.3423,-8041.375,-8037.749,-8019.014,-8012.204,-8030.9272,-8055.023,-8065.1543,-8047.829,-8015.4272,-7999.141,-8011.8584,-8025.2354,-8020.4355,-8031.4463,-8040.195,-8039.558,-8041.4956,-8028.718,-8021.3237,-7996.847,-7978.102,-7999.3687,-8009.303,-8020.847,-8022.27,-7999.792,-8004.0005,-8018.2627,-8025.073,-8027.4575,-8017.2354,-8013.6206,-8016.4688,-8015.4565,-8043.549,-8084.9165,-8071.175,-8050.249,-8050.2446,-8016.0317,-8004.872,-8030.1475,-8032.156,-8028.382,-8028.6255,-8023.487,-8016.6016,-8023.2764,-8040.1577,-8044.8784,-8039.738,-8034.0483,-8034.583,-8032.089,-8027.7773,-8034.958,-8045.59,-8048.9463,-8046.1406,-8048.0513,-8054.727,-8051.763,-8021.694,-8001.7437,-8013.475,-8021.2974,-8048.911,-8058.6255,-8020.292,-8020.547,-8038.1113,-8026.476,-8027.737,-8033.3066,-8007.9946,-7990.4375,-8012.65,-8024.337,-8006.0005,-8005.596,-8029.144,-8034.5913,-8033.891,-8045.877,-8040.225,-8036.0444,-8051.0127,-8052.2812,-8045.981,-8047.5703,-8038.8594,-8017.8057,-8009.943,-8010.8555,-8004.4785,-8013.342,-8023.472,-8007.9937,-8008.598,-8030.9653,-8036.0317,-8033.9355,-8051.3604,-8084.525,-8083.79,-8051.1313,-8054.4897,-8058.5933,-8031.5703,-8022.842,-8023.8564,-8024.2627,-8023.909,-8017.7695,-8025.382,-8039.3647,-8056.9795,-8070.504,-8057.581,-8021.208,-8003.52,-8040.113,-8073.5605,-8061.291,-8018.8926,-7999.2314,-8044.4355,-8061.3667,-8026.719,-8045.2744,-8129.5737,-8151.1743,-8055.116
-7999.6895,-8013.3896,-8016.465,-8024.6143,-8014.4365,-8012.3105,-8033.815,-8037.2666,-8039.5806,-8033.466,-8010.0513,-8002.171,-8018.49,-8022.6416,-8014.8447,-8022.991,-8040.485,-8052.217,-8028.9644,-8003.84,-8023.9155,-8053.5625,-8079.137,-8103.74,-8103.176,-8068.61,-8036.853,-8042.4214,-8047.9976,-8029.0493,-8028.296,-8044.777,-8045.5537,-8046.8647,-8050.309,-8045.661,-8035.1885,-8013.4473,-7996.475,-8012.0767,-8084.956,-8133.97,-8072.7266,-8023.7954,-8041.3115,-8045.2354,-8042.569,-8039.127,-8041.9565,-8057.4624,-8060.4873,-8060.7974,-8075.689,-8102.965,-8101.2173,-8056.2896,-8008.83,-7992.358,-7999.886,-7989.764,-7977.9683,-7979.97,-7987.668,-8015.2407,-8030.385,-8026.597,-8031.33,-8050.354,-8065.709,-8033.1562,-7993.188,-8008.5005,-8046.6675,-8054.925,-8028.2163,-8024.7954,-8060.7007,-8071.7437,-8056.2754,-8057.661,-8069.3433,-8075.2754,-8058.599,-8032.9688,-8032.502,-8035.5444,-8032.969,-8030.63,-8034.62,-8045.569,-8042.5913,-8040.96,-8036.431,-8029.4404,-8036.268,-8034.9707,-8033.701,-8055.795,-8076.5874,-8060.2476,-8056.667,-8104.6294,-8123.2075,-8055.9927,-7980.1,-8003.8687,-8052.4688,-8032.5957,-8029.4536,-8060.16,-8076.8325,-8072.1787,-8050.3438,-8036.24,-8010.775,-7998.5815,-8019.0127,-8014.388,-8006.2285,-8009.2676,-8005.5186,-8012.131,-8029.6045,-8056.0034,-8056.4785,-8049.911,-8103.109,-8139.5537,-8117.439,-8099.7554,-8063.7056,-8017.8984,-8021.188,-8058.8945,-8094.1577,-8109.2515,-8102.2363,-8075.668,-8052.6924,-8046.768,-8044.9214,-8044.8794,-8032.918,-8027.2476,-8043.564,-8046.6523,-8045.1104,-8054.5205,-8057.3457,-8060.0767,-8069.6714,-8075.5234,-8080.138,-8083.092,-8063.784,-8030.305,-8023.3735,-8041.6147,-8040.9937,-8022.5054,-8019.924,-8017.525,-8015.4297,-8040.806,-8047.5234,-8042.5835,-8073.2026,-8075.103,-8052.4526,-8041.8228,-8007.385,-7996.445,-8032.5376,-8062.3486,-8057.317,-8036.5767,-8053.1514,-8075.156,-8059.866,-8038.8643,-8028.863,-8035.6216,-8052.062,-8066.3438,-8069.628,-8057.0146,-8046.756,-8046.75,-8055.588,-8045.246,-8023.8135,-8058.9326,-8101.812,-8070.9355,-8025.1665,-8030.078,-8059.8174,-8069.6743,-8053.1577,-8031.3296,-8016.3276,-8007.365,-8011.53,-8045.1787,-8084.691,-8089.8765,-8091.884,-8098.484,-8063.528,-8019.2017,-8015.152,-8039.0693,-8063.803,-8067.6777,-8053.6787,-8047.7197,-8044.9434,-8038.923,-8047.5806,-8050.343,-8044.864,-8044.4375,-8034.2383,-8037.633,-8054.3228,-8056.501,-8050.911,-8043.1196,-8043.8335,-8068.309,-8091.7886,-8079.738,-8061.5874,-8059.7183,-8056.0767,-8057.0605,-8064.511,-8066.3545,-8064.481,-8086.2656,-8114.827,-8111.084,-8093.7124,-8058.837,-8024.309,-8028.304,-8041.7007,-8041.826,-8038.575,-8047.471,-8074.7314,-8098.8574,-8082.376,-8047.334,-8041.7354,-8038.3047,-8012.014,-8001.2354,-8049.731,-8111.52,-8134.2837,-8151.0566,-8136.198,-8083.35,-8061.603,-8058.254,-8055.598,-8053.0938,-8027.7495,-8015.1753,-8020.905,-8020.847,-8037.61,-8053.416,-8059.9473,-8064.3535,-8055.8706,-8060.21,-8064.551,-8056.804,-8053.485,-8051.053,-8062.962,-8077.2676,-8072.2866,-8050.628,-8036.073,-8049.477,-8073.7793,-8088.7344,-8070.499,-8024.6816,-8015.2104,-8074.3887,-8108.7144,-8087.541,-8090.0396,-8070.1714,-8040.275,-8048.908,-8039.582,-8034.2637,-8037.599,-8039.5234,-8054.6777,-8063.1064,-8059.2705,-8053.1953,-8080.0405,-8096.0073,-8071.9277,-8076.603,-8088.4116,-8066.7827,-8037.9194,-8033.35,-8046.612,-8049.5825,-8049.5674,-8054.591,-8057.5444,-8060.1733,-8080.562,-8093.525,-8079.134,-8091.162,-8102.859,-8075.959,-8065.077,-8069.255,-8067.265,-8068.6196,-8058.8047,-8049.1694,-8055.384,-8071.696,-8092.2793,-8086.2515,-8064.87,-8054.0093,-8048.476,-8073.5015,-8116.5625,-8129.323,-8095.6084,-8048.929,-8051.2627,-8083.4473,-8085.71,-8075.8403,-8078.08,-8065.6997,-8045.133,-8040.8623,-8051.3584,-8065.182,-8075.498,-8099.6455,-8131.8765,-8159.362,-8147.605,-8087.406,-8073.06,-8102.865,-8094.133,-8058.3613,-8058.031,-8085.8433,-8073.0107,-8060.3013,-8075.652,-8058.1953,-8045.6885,-8063.673,-8100.997,-8158.294,-8154.7046,-8100.8486,-8073.5107,-8060.8486,-8071.746,-8081.527,-8063.9087,-8057.6987,-8053.0205,-8060.6104,-8088.478,-8091.704,-8087.981,-8105.3945,-8121.118,-8115.53,-8097.645,-8082.354,-8071.471,-8088.8306,-8125.7627,-8122.7446,-8103.4434,-8099.7935,-8081.4165,-8072.0796,-8092.7793,-8119.167,-8113.4355,-8070.8784,-8063.519,-8108.3174,-8135.447,-8105.6953,-8077.792,-8096.215,-8107.883,-8099.9375,-8101.8247,-8134.676,-8166.2324,-8135.6646,-8082.048,-8039.742,-8016.133,-8030.785,-8049.8916,-8068.8926,-8089.467,-8079.125,-8064.687,-8079.1494,-8101.8413,-8104.836,-8094.1616,-8096.383,-8095.405,-8088.2607,-8110.7236,-8130.993,-8097.452,-8065.7476,-8104.934,-8137.4556,-8117.8096,-8101.8574,-8094.5596,-8114.3076,-8125.1313,-8104.99,-8106.675,-8089.0796,-8057.1123,-8037.024,-8027.143,-8050.306,-8064.2827,-8063.4336,-8060.79,-8048.818,-8057.265,-8079.4746,-8085.371,-8085.1826,-8092.7,-8078.8135,-8055.202,-8058.0557,-8063.823,-8070.1353,-8079.116,-8080.4937,-8084.5913,-8085.9253,-8095.6187,-8095.2324,-8050.0913,-8018.42,-8049.3433,-8099.953,-8109.1943,-8093.8955,-8110.4634,-8135.4956,-8112.8022,-8059.3896,-8050.7974,-8072.852,-8070.0107,-8069.345,-8071.191,-8075.498,-8089.543,-8082.6147,-8072.279,-8077.9155,-8083.279,-8078.1274,-8063.9214,-8054.8213,-8061.0356,-8067.3525,-8070.2905,-8080.621,-8071.372,-8052.3643,-8056.046,-8086.373,-8130.885,-8124.5303,-8094.7534,-8094.568,-8089.91,-8110.446,-8116.2544,-8072.3257,-8064.6577,-8074.8193,-8079.159,-8090.5806,-8106.2446,-8135.8013,-8113.487,-8050.3555,-8046.268,-8068.814,-8038.9126,-8019.37,-8060.7603,-8064.189,-8043.0527,-8081.3003,-8127.2383,-8132.539,-8111.268,-8084.5435,-8062.176,-8057.301,-8082.568,-8115.401,-8107.581,-8087.1743,-8103.203,-8104.021,-8098.01,-8088.8623,-8050.61,-8050.345,-8065.48,-8062.067,-8066.432,-8069.154,-8073.92,-8065.8887,-8049.963,-8050.6665,-8056.742,-8061.5044,-8058.86,-8061.161,-8079.9717,-8084.939,-8078.639,-8090.383,-8094.3096,-8076.897,-8067.6616,-8070.58,-8076.332,-8071.966,-8065.5117,-8079.5684,-8090.424,-8086.7964,-8078.684,-8059.477,-8043.1133,-8050.7197,-8104.1304,-8177.815,-8180.377,-8113.7627,-8074.9736,-8081.5396,-8073.2983,-8031.6216,-8013.3853,-8052.42,-8082.421,-8071.598,-8072.253,-8086.3643,-8091.316,-8078.82,-8055.015,-8057.211,-8080.616,-8092.264,-8090.5615,-8092.1416,-8083.033,-8067.7925,-8061.374,-8023.5635,-8022.319,-8078.7676,-8094.2075,-8124.9585,-8152.5693,-8115.7695,-8105.936,-8106.4727,-8085.0156,-8072.791,-8067.524,-8085.3755,-8107.5547,-8116.015,-8093.7886,-8038.4497,-8009.044,-8001.636,-8000.0063,-8022.511,-8053.5273,-8069.509,-8083.141,-8107.3257,-8118.07,-8126.7876,-8117.046,-8073.96,-8060.8047,-8069.9243,-8074.3325,-8083.497,-8086.84,-8080.813,-8078.112,-8085.3726,-8078.452,-8065.2944,-8061.431,-8062.398,-8073.474,-8084.279,-8095.784,-8091.1797,-8079.3066,-8087.946,-8089.4253,-8080.3125,-8078.338,-8101.3877,-8133.1772,-8142.0635,-8146.3726,-8143.1323,-8116.0215,-8065.1807,-8028.688,-8037.4004,-8042.209,-8041.156,-8061.483,-8079.587,-8093.131,-8111.891,-8132.464,-8128.736,-8122.4624,-8136.267,-8090.479,-8035.9087,-8046.388,-8038.177,-8028.7236,-8058.772,-8092.871,-8109.3286,-8096.3213,-8074.5054,-8064.688,-8078.8774,-8082.151,-8070.333,-8082.909,-8089.642,-8091.288,-8072.028,-8054.4614,-8094.2715,-8103.3403,-8086.7056,-8095.923,-8091.5547,-8101.718,-8111.8193,-8105.3496,-8134.685,-8137.1904,-8078.906,-8053.046,-8061.795,-8063.077,-8062.2656,-8066.36,-8083.682,-8090.234,-8078.6167,-8075.831,-8076.2344,-8059.666,-8047.7188,-8070.532,-8092.0044,-8100.13,-8116.2466,-8111.5127,-8090.4507,-8087.0464,-8091.252,-8089.312,-8091.8228,-8096.459,-8102.5703,-8119.1943,-8120.8877,-8097.26,-8068.1167,-8056.0293,-8072.561,-8088.5137,-8087.7476,-8092.914,-8108.848,-8097.4233,-8060.4897,-8048.224,-8057.389,-8059.281,-8059.027,-8079.403,-8113.308,-8141.153,-8136.4956,-8088.85,-8069.8286,-8098.72,-8119.503,-8107.7056,-8082.8237,-8093.655,-8108.2837,-8093.3384,-8088.1904,-8081.675,-8068.9004,-8068.7812,-8079.276,-8095.3145,-8097.2783,-8102.5576,-8118.3213,-8121.2153,-8112.475,-8093.82,-8098.8154,-8102.517,-8069.652,-8077.0967,-8106.753,-8087.9165,-8064.6245,-8088.3726,-8127.6147,-8137.1953,-8141.6025,-8131.405,-8095.61,-8096.3,-8120.219,-8118.7095,-8096.113,-8060.223,-8047.8887,-8070.437,-8082.156,-8088.984,-8093.455,-8080.5166,-8074.559,-8075.984,-8079.4478,-8081.9272,-8076.7715,-8051.4985,-8027.9863,-8062.7246,-8093.7695,-8095.4834,-8145.4136,-8188.3525,-8166.118,-8131.6323,-8113.123,-8116.564,-8125.908,-8101.6177,-8070.6646,-8086.431,-8120.394,-8115.8755,-8093.1523,-8083.678,-8079.6143,-8099.7188,-8133.785,-8134.392,-8105.8496,-8088.2295,-8103.215,-8116.2344,-8092.6206,-8057.457,-8064.516,-8117.2695,-8142.2686,-8132.1724,-8115.611,-8099.914,-8117.1265,-8110.4736,-8081.227,-8092.0522,-8086.67,-8072.7456,-8075.5156,-8077.624,-8091.49,-8094.0015,-8090.092,-8093.049,-8097.07,-8110.2383,-8122.7456,-8126.589,-8115.273,-8104.075,-8108.0903,-8107.9346,-8112.905,-8138.1772,-8152.8823,-8131.57,-8101.3467,-8096.7715,-8119.335,-8151.097,-8177.7085,-8174.357,-8120.7095,-8081.2866,-8084.0005,-8093.847,-8108.1323,-8100.94,-8119.0596,-8164.8496,-8153.0923,-8117.275,-8094.6553,-8095.1846,-8089.6543,-8053.1587,-8046.3433,-8056.2803,-8068.47,-8112.989,-8144.243,-8128.7046,-8112.7065,-8109.79,-8103.931,-8108.9287,-8101.18,-8085.4966,-8090.696,-8094.808,-8104.5674,-8126.2715,-8134.9517,-8129.946,-8126.9155,-8125.1494,-8125.295,-8122.9966,-8096.9536,-8072.8813,-8089.819,-8131.1455,-8146.836,-8116.793,-8085.5503,-8072.1123,-8065.955,-8089.208,-8127.6133,-8145.6567,-8128.4014,-8086.55,-8074.8945,-8095.7656,-8110.7666,-8115.579,-8116.5474,-8114.8164,-8102.546,-8093.705,-8090.969,-8095.3657,-8107.366,-8117.725,-8159.582,-8169.506,-8116.239,-8117.334,-8135.52,-8103.6772,-8087.572,-8095.2837,-8111.844,-8127.0986,-8119.7783,-8114.1836,-8106.737,-8094.3057,-8107.465,-8121.7456,-8125.0464,-8131.9585,-8118.907,-8098.7554,-8105.8696,-8125.722,-8141.5405,-8149.328,-8154.5166,-8152.0747,-8116.9873,-8081.446,-8075.7954,-8091.138,-8113.905,-8111.4595,-8105.833,-8105.2695,-8092.0747,-8085.9907,-8077.308,-8086.0684,-8109.6245,-8107.927,-8113.5884,-8129.4624,-8113.271,-8090.5923,-8112.177,-8146.142,-8150.523,-8134.963,-8107.6665,-8103.2266,-8124.2104,-8130.6567,-8127.094,-8125.187,-8127.744,-8126.134,-8124.14,-8138.991,-8140.7046,-8121.4907,-8102.813,-8070.04,-8041.697,-8067.2373,-8127.556,-8160.6997,-8150.34,-8127.182,-8113.3477,-8105.2993,-8093.3013,-8085.344,-8102.789,-8126.727,-8135.8823,-8135.1147,-8120.266,-8108.6284,-8103.8877,-8105.0034,-8108.614,-8082.22,-8071.906,-8115.8857,-8154.4614,-8166.699,-8164.9966,-8146.9165,-8128.0,-8122.6025,-8119.283,-8109.167,-8106.325,-8099.668,-8087.717,-8110.767,-8143.6655,-8133.8315,-8105.48,-8102.8813,-8123.619,-8134.5635,-8124.2075,-8121.543,-8132.081,-8115.726,-8090.058,-8087.938,-8084.8945,-8088.97,-8108.2905,-8123.6655,-8133.0693,-8135.284,-8125.5312,-8112.5225,-8134.3286,-8182.2476,-8187.4653,-8140.795,-8103.057,-8093.979,-8089.2847,-8084.246,-8071.427,-8065.9897,-8085.685,-8115.6733,-8128.7744,-8113.3594,-8103.153,-8101.9526,-8106.6143,-8103.5234,-8088.33,-8111.773,-8132.9033,-8121.9907,-8120.959,-8130.4863,-8129.258,-8103.3984,-8082.7803,-8074.437,-8079.788,-8102.217,-8122.3726,-8158.281,-8191.2075,-8206.295,-8203.7705,-8170.8096,-8133.4683,-8102.428,-8087.9634,-8075.141,-8053.8003,-8060.9326,-8082.3887,-8097.7227,-8119.5654,-8140.6465,-8131.4316,-8118.4844,-8133.9375,-8131.815,-8117.5103,-8119.881,-8130.1484,-8138.586,-8127.5347,-8121.2163,-8139.149,-8155.142,-8151.2744,-8142.282,-8139.4277,-8145.2256,-8156.116,-8135.27,-8121.0435,-8131.658,-8113.2793,-8103.956,-8088.384,-8063.5654,-8087.4434,-8096.9814,-8089.311,-8094.8047,-8085.019,-8084.0767,-8090.911,-8089.2505,-8091.7524,-8109.489,-8125.783,-8120.0493,-8117.207,-8117.417,-8113.7866,-8109.5645,-8110.684,-8136.641,-8137.198,-8110.737,-8122.665,-8158.0986,-8191.6343,-8184.9043,-8121.34,-8093.079,-8130.889,-8134.452,-8109.8423,-8137.1685,-8137.499,-8090.539,-8071.034,-8062.5596,-8074.357,-8082.3013,-8068.0586,-8080.0317,-8095.0435,-8106.689,-8111.885,-8097.4746,-8090.942,-8095.0273,-8104.4395,-8096.268,-8086.416,-8101.252,-8112.6743,-8122.473,-8120.094,-8110.151,-8107.82,-8104.278,-8121.4385,-8120.3594,-8088.848,-8090.62,-8099.378,-8094.596,-8117.452,-8150.901,-8164.3257,-8154.2554,-8129.4834,-8108.6577,-8097.8906,-8107.4272,-8113.201,-8125.6133,-8176.284,-8187.7354,-8152.593,-8131.932,-8128.35,-8118.869,-8089.6567,-8093.2656,-8113.1787,-8110.049,-8100.5874,-8078.52,-8096.9766,-8130.537,-8132.363,-8153.6123,-8146.34,-8122.737,-8158.8584,-8195.01,-8180.6934,-8150.165,-8143.806,-8141.869,-8130.6523
-8123.8623,-8118.1978,-8110.5615,-8091.936,-8094.163,-8093.555,-8073.0464,-8092.4395,-8111.609,-8108.924,-8112.506,-8137.1455,-8167.6006,-8149.926,-8124.4307,-8111.4585,-8100.196,-8118.2476,-8135.4688,-8140.711,-8134.182,-8119.379,-8124.6685,-8116.1406,-8105.6577,-8131.593,-8147.8223,-8143.625,-8137.892,-8130.62,-8113.487,-8080.3975,-8065.898,-8081.455,-8098.4956,-8102.678,-8121.3057,-8152.683,-8158.383,-8167.2,-8167.169,-8139.42,-8136.466,-8144.643,-8155.465,-8178.3984,-8164.889,-8113.405,-8088.3745,-8109.2197,-8141.92,-8159.282,-8138.614,-8112.569,-8127.2695,-8142.8784,-8122.623,-8098.357,-8103.347,-8122.1157,-8139.5625,-8143.2114,-8133.777,-8136.569,-8126.65,-8109.676,-8112.2974,-8113.118,-8121.9956,-8135.099,-8133.4277,-8116.7705,-8098.42,-8115.0894,-8142.7373,-8158.0283,-8191.302,-8208.627,-8173.46,-8135.2256,-8136.246,-8164.1235,-8195.202,-8197.445,-8160.6646,-8124.072,-8117.6606,-8150.5728,-8202.096,-8226.337,-8211.725,-8159.921,-8086.417,-8039.6562,-8037.8135,-8065.5312,-8099.205,-8119.585,-8148.714,-8176.221,-8168.78,-8155.441,-8136.915,-8119.958,-8132.577,-8136.6064,-8138.455,-8159.7793,-8175.3086,-8184.2314,-8169.597,-8136.049,-8121.4272,-8115.867,-8120.934,-8139.0986,-8140.761,-8144.001,-8156.0034,-8162.249,-8190.3213,-8211.488,-8179.9917,-8136.18,-8117.2104,-8119.2534,-8135.2026,-8143.395,-8127.3535,-8108.415,-8103.3037,-8101.8374,-8115.0757,-8144.7114,-8162.463,-8171.2617,-8158.618,-8117.2036,-8098.568,-8119.935,-8153.5986,-8157.5796,-8139.457,-8152.94,-8185.1035,-8203.169,-8202.901,-8192.249,-8164.5815,-8123.2617,-8108.3296,-8119.6016,-8143.703,-8153.973,-8139.1455,-8144.985,-8164.485,-8196.057,-8233.689,-8213.334,-8154.8496,-8118.9346,-8110.4795,-8110.8325,-8118.012,-8131.3228,-8131.1724,-8130.878,-8137.67,-8152.103,-8177.0283,-8174.303,-8150.1597,-8129.142,-8125.855,-8155.899,-8164.351,-8140.384,-8126.945,-8114.9854,-8122.1704,-8140.0684,-8128.6553,-8125.3696,-8126.473,-8115.0444,-8133.3154,-8166.779,-8192.95,-8191.7188,-8154.1157,-8143.3115,-8157.369,-8154.134,-8161.0283,-8177.537,-8170.9243,-8154.0986,-8140.1006,-8123.505,-8124.0366,-8148.591,-8173.1904,-8205.639,-8241.005,-8219.057,-8167.836,-8160.1577,-8158.0312,-8132.461,-8110.4385,-8098.065,-8091.4043,-8094.3706,-8111.018,-8116.261,-8100.8276,-8091.867,-8094.6577,-8106.9673,-8117.3066,-8108.0693,-8102.658,-8101.8647,-8090.16,-8084.349,-8085.161,-8119.9624,-8177.3027,-8186.989,-8175.886,-8187.2715,-8184.935,-8154.419,-8154.1953,-8158.9316,-8108.1904,-8097.354,-8139.5576,-8156.6064,-8140.4033,-8077.0894,-8039.346,-8069.337,-8104.0347,-8116.514,-8094.8438,-8082.3145,-8094.7334,-8096.8276,-8104.592,-8112.313,-8106.544,-8098.243,-8097.1426,-8099.1753,-8115.225,-8150.4624,-8143.3335,-8127.6987,-8144.1567,-8120.6787,-8105.145,-8122.8955,-8119.861,-8118.814,-8114.6133,-8131.0747,-8158.876,-8159.544,-8195.414,-8206.272,-8128.3794,-8075.409,-8086.522,-8096.796,-8097.7207,-8113.3433,-8106.4688,-8082.873,-8101.627,-8128.6436,-8123.0254,-8100.9497,-8094.4995,-8103.7188,-8106.0527,-8118.1353,-8125.859,-8109.9614,-8092.7285,-8100.8486,-8130.809,-8136.0073,-8115.2637,-8093.078,-8085.605,-8108.6406,-8131.869,-8134.3013,-8137.493,-8138.4272,-8122.732,-8114.106,-8119.7305,-8123.684,-8113.9233,-8098.965,-8114.8286,-8129.5884,-8114.997,-8114.3735,-8116.756,-8105.541,-8116.117,-8150.595,-8175.5522,-8167.184,-8144.64,-8135.648,-8121.495,-8107.5625,-8110.2666,-8115.25,-8125.124,-8124.856,-8118.1113,-8122.6606,-8123.932,-8138.251,-8160.977,-8149.68,-8110.4863,-8104.6772,-8123.694,-8110.548,-8111.0635,-8128.615,-8127.0205,-8134.2124,-8142.6333,-8149.737,-8155.2026,-8154.555,-8142.1084,-8145.8438,-8203.538,-8197.5205,-8132.5015,-8129.7656,-8142.0693,-8147.0737,-8136.2935,-8113.674,-8121.5503,-8128.1523,-8132.681,-8146.6035,-8156.215,-8143.403,-8110.676,-8116.6943,-8178.408,-8234.179,-8230.439,-8186.6064,-8116.506,-8056.955,-8066.4404,-8082.078,-8087.2246,-8117.579,-8133.9233,-8135.86,-8136.008,-8142.2505,-8153.8325,-8163.054,-8172.714,-8158.0415,-8144.7036,-8141.05,-8124.01,-8132.1597,-8158.036,-8155.798,-8129.085,-8107.9473,-8110.01,-8131.9277,-8136.6865,-8125.828,-8140.84,-8139.986,-8127.264,-8126.7246,-8110.6074,-8112.425,-8112.2686,-8104.998,-8117.043,-8112.6533,-8105.981,-8107.9355,-8112.627,-8113.11,-8110.2217,-8126.5283,-8145.4717,-8152.821,-8144.183,-8135.0117,-8123.771,-8116.087,-8146.6123,-8163.074,-8153.7944,-8157.741,-8167.239,-8177.233,-8158.915,-8128.551,-8127.3286,-8119.915,-8101.448,-8121.827,-8150.795,-8134.752,-8112.997,-8113.961,-8116.2734,-8121.071,-8125.6626,-8122.5435,-8135.4854,-8152.086,-8143.729,-8141.247,-8138.563,-8117.623,-8119.16,-8140.367,-8144.266,-8127.3228,-8107.298,-8108.106,-8127.004,-8141.579,-8160.036,-8186.238,-8182.9805,-8152.195,-8145.3003,-8163.4336,-8175.211,-8170.479,-8151.6978,-8141.7437,-8141.935,-8146.4663,-8163.24,-8159.2583,-8139.144,-8133.9946,-8121.649,-8103.548,-8099.846,-8121.8413,-8168.771,-8187.047,-8149.914,-8128.6562,-8163.8174,-8188.3403,-8179.7173,-8163.979,-8134.25,-8123.1387,-8132.3584,-8131.582,-8137.316,-8133.7627,-8123.7954,-8127.671,-8125.336,-8121.4463,-8128.3965,-8140.091,-8135.4175,-8122.9463,-8124.692,-8124.4717,-8127.279,-8133.526,-8136.4697,-8146.991,-8154.036,-8149.5176,-8148.128,-8151.1123,-8137.8145,-8135.274,-8161.384,-8170.207,-8158.8354,-8153.4243,-8143.7593,-8123.601,-8120.265,-8117.098,-8103.0283,-8107.3423,-8093.4766,-8091.486,-8131.6416,-8147.649,-8147.783,-8131.392,-8111.011,-8118.8984,-8118.236,-8115.443,-8115.8037,-8118.423,-8141.7524,-8168.863,-8188.503,-8198.516,-8173.717,-8109.7246,-8079.6094,-8111.4224,-8142.601,-8151.5845,-8172.138,-8190.46,-8157.2837,-8132.182,-8146.7583,-8138.548,-8132.6284,-8133.433,-8106.5024,-8093.6016,-8103.703,-8106.8125,-8109.3354,-8113.1367,-8116.4033,-8120.019,-8111.52,-8107.7085,-8122.1743,-8127.936,-8123.6733,-8119.8745,-8108.9165,-8114.932,-8136.8105,-8141.021,-8140.1943,-8129.8564,-8116.3877,-8124.545,-8141.6177,-8173.186,-8176.962,-8137.1465,-8132.147,-8148.9834,-8132.0454,-8104.877,-8110.944,-8136.2197,-8134.5684,-8116.069,-8120.0615,-8145.3184,-8151.1147,-8129.761,-8119.896,-8117.201,-8103.5015,-8112.102,-8138.658,-8135.29,-8130.3237,-8146.5415,-8147.857,-8143.914,-8136.0776,-8119.9976,-8118.133,-8117.2964,-8113.1675,-8108.0522,-8093.1587,-8090.8955,-8120.376,-8133.227,-8109.215,-8119.1797,-8160.892,-8191.965,-8197.946,-8168.8184,-8137.5938,-8114.351,-8124.603,-8156.4893,-8161.849,-8165.44,-8134.802,-8083.857,-8081.17,-8098.522,-8105.887,-8096.3535,-8105.665,-8142.653,-8157.1616,-8162.3257,-8189.246,-8212.62,-8175.0425,-8110.8647,-8098.514,-8092.156,-8075.872,-8091.4727,-8111.342,-8127.1724,-8137.549,-8135.6313,-8135.0596,-8143.3516,-8162.478,-8151.1553,-8114.0024,-8097.855,-8093.315,-8105.946,-8146.644,-8183.66,-8182.4414,-8145.3696,-8111.8857,-8101.948,-8101.0127,-8114.0566,-8129.423,-8125.944,-8130.356,-8133.5205,-8132.266,-8139.0674,-8129.2754,-8124.949,-8133.6475,-8143.8145,-8152.434,-8137.6665,-8121.715,-8108.3247,-8093.1772,-8108.2695,-8133.965,-8141.057,-8146.8037,-8156.9653,-8152.297,-8144.0405,-8147.332,-8147.94,-8146.2534,-8140.167,-8126.846,-8129.581,-8147.911,-8150.716,-8145.789,-8141.2837,-8115.5664,-8094.8403,-8093.7593,-8104.3047,-8121.524,-8114.5034,-8113.5483,-8137.009,-8157.3657,-8178.453,-8187.268,-8176.041,-8142.642,-8134.162,-8170.5986,-8170.071,-8154.825,-8151.488,-8122.1113,-8091.576,-8081.061,-8097.3013,-8116.845,-8120.5513,-8123.5703,-8127.9243,-8130.116,-8123.7495,-8126.8955,-8139.7324,-8149.413,-8148.052,-8133.2573,-8142.549,-8155.7715,-8152.186,-8147.14,-8123.993,-8113.012,-8129.8916,-8164.572,-8207.247,-8190.4126,-8121.641,-8092.0796,-8118.6943,-8142.68,-8135.5293,-8129.4194,-8132.4043,-8142.0444,-8177.1113,-8197.647,-8181.294,-8171.829,-8158.833,-8148.296,-8147.5103,-8121.5415,-8107.9604,-8113.3506,-8128.0356,-8158.045,-8161.41,-8145.838,-8133.5654,-8126.807,-8116.5576,-8110.5312,-8127.3506,-8135.0864,-8134.064,-8140.0806,-8149.3716,-8141.729,-8115.515,-8124.2,-8146.259,-8147.2944,-8152.5205,-8162.3916,-8166.715,-8150.049,-8130.143,-8142.612,-8166.961,-8175.514,-8169.8594,-8170.671,-8181.7065,-8172.1943,-8141.919,-8120.0693,-8122.576,-8119.426,-8090.543,-8098.289,-8145.577,-8181.0654,-8182.1514,-8146.286,-8135.043,-8150.9575,-8151.2163,-8140.9644,-8128.3477,-8136.8657,-8148.8423,-8147.4844,-8145.624,-8136.5205,-8142.5283,-8153.6,-8142.204,-8130.7617,-8130.537,-8131.379,-8128.332,-8128.4155,-8132.71,-8143.655,-8151.614,-8135.1865,-8122.8276,-8140.591,-8169.157,-8182.1123,-8184.8643,-8200.092,-8201.82,-8172.9106,-8134.762,-8103.882,-8104.6543,-8132.973,-8161.02,-8169.6914,-8147.3223,-8131.5503,-8140.166,-8140.7085,-8147.4946,-8159.9214,-8153.113,-8146.914,-8141.073,-8128.501,-8127.665,-8137.402,-8140.3247,-8134.1377,-8139.4233,-8152.9873,-8150.2227,-8147.57,-8161.057,-8166.6284,-8177.546,-8195.056,-8172.313,-8152.4863,-8152.102,-8146.0034,-8184.932,-8220.133,-8214.403,-8216.082,-8210.298,-8181.9043,-8118.2446,-8084.782,-8134.145,-8164.4014,-8161.7764,-8170.5693,-8174.724,-8185.6616,-8185.5146,-8172.384,-8176.335,-8173.461,-8151.8735,-8141.0835,-8167.4297,-8195.84,-8200.271,-8209.847,-8202.288,-8171.0815,-8156.2803,-8167.4053,-8180.468,-8169.23,-8159.156,-8163.707,-8147.5713,-8129.2256,-8143.7217,-8156.364,-8149.2334,-8133.694,-8119.972,-8123.751,-8119.8916,-8125.905,-8161.3716,-8167.893,-8148.85,-8146.8325,-8149.1943,-8134.4204,-8125.222,-8137.635,-8158.492,-8196.156,-8229.843,-8231.19,-8212.724,-8192.784,-8194.667,-8194.025,-8160.318,-8135.9824,-8119.622,-8099.6616,-8113.2485,-8120.537,-8119.417,-8145.476,-8159.1626,-8169.2915,-8168.138,-8148.27,-8145.0054,-8138.626,-8133.863,-8124.392,-8119.3706,-8145.898,-8141.122,-8119.3623,-8132.421,-8139.241,-8135.4746,-8144.2354,-8160.469,-8175.9756,-8171.438,-8154.5493,-8160.579,-8175.4673,-8167.127,-8154.328,-8152.873,-8145.7197,-8141.353,-8149.6104,-8153.082,-8151.124,-8147.6333,-8153.3496,-8172.8613,-8178.767,-8160.307,-8142.6807,-8168.9688,-8199.468,-8172.565,-8158.283,-8187.7466,-8217.724,-8227.34,-8190.7827,-8142.3716,-8125.545,-8137.6416,-8152.798,-8142.1846,-8131.5137,-8136.7153,-8153.9937,-8175.099,-8173.7095,-8166.468,-8174.444,-8198.322,-8225.489,-8209.729,-8148.5415,-8109.215,-8127.219,-8149.6704,-8136.3096,-8139.183,-8172.686,-8202.41,-8231.693,-8235.53,-8212.599,-8182.059,-8140.7275,-8124.629,-8142.824,-8172.3916,-8168.36,-8144.4473,-8153.6553,-8148.3726,-8145.02,-8165.12,-8178.65,-8189.656,-8164.708,-8162.77,-8219.293,-8245.202,-8207.528,-8158.0513,-8179.144,-8199.17,-8155.7666,-8138.515,-8144.3877,-8171.469,-8218.551,-8208.644,-8157.129,-8133.2812,-8144.4644,-8153.1304,-8158.1143,-8163.2065,-8156.465,-8149.986,-8133.9995,-8124.905,-8142.698,-8151.8145,-8152.3486,-8179.737,-8213.897,-8219.89,-8213.277,-8188.2544,-8162.527,-8181.4307,-8198.171,-8187.6577,-8191.3354,-8194.447,-8171.947,-8156.968,-8157.6533,-8157.5273,-8175.6904,-8195.924,-8196.105,-8218.186,-8252.562,-8243.968,-8239.141,-8250.778,-8224.738,-8206.025,-8178.8584,-8129.4507,-8128.0796,-8136.315,-8150.374,-8181.836,-8190.5825,-8202.219,-8209.652,-8194.803,-8180.465,-8172.57,-8162.5527,-8160.7095,-8168.189,-8149.36,-8120.7583,-8123.702,-8142.5513,-8152.6094,-8159.5083,-8169.7163,-8186.5845,-8206.368,-8208.625,-8202.905,-8202.577,-8203.706,-8198.445,-8176.233,-8150.3774,-8137.1343,-8141.771,-8147.227,-8143.363,-8147.1304,-8164.8315,-8207.103,-8243.454,-8229.19,-8207.1875,-8199.716,-8183.1763,-8178.2886,-8173.819,-8154.087,-8146.301,-8143.21,-8143.6084,-8165.483,-8181.829,-8153.2803,-8126.109,-8158.365,-8198.803,-8201.187,-8179.716,-8166.0728,-8174.056,-8169.1543,-8159.4033,-8173.281,-8181.06,-8183.0195,-8206.797,-8226.054,-8221.385,-8221.197,-8220.315,-8202.304,-8218.692,-8253.342,-8212.634,-8147.452,-8144.83,-8162.3984,-8172.7905,-8177.633,-8159.1445,-8145.89,-8154.513,-8180.1714,-8205.489,-8213.541,-8236.482,-8224.083,-8170.4224,-8176.0913,-8219.166,-8231.7,-8177.3228,-8121.935,-8155.669,-8203.028,-8206.338,-8180.8994,-8151.1973,-8149.5723,-8161.744,-8161.7046,-8150.919,-8161.3394,-8188.289,-8198.879,-8198.995,-8185.5684,-8148.3438,-8125.9204,-8174.474,-8248.043,-8262.874,-8250.213,-8240.907,-8218.207,-8199.626,-8170.7607,-8135.6235,-8147.551,-8177.7446,-8192.744,-8200.672,-8189.6157,-8193.778,-8216.924,-8186.0967,-8137.815,-8147.008,-8162.415,-8154.831,-8137.1016,-8112.367,-8128.338,-8172.71,-8191.4795,-8186.065,-8166.402,-8154.748,-8169.0415,-8182.4893,-8185.0005,-8198.043,-8209.279,-8193.119,-8173.7246,-8182.521,-8183.684,-8145.36,-8108.547,-8117.306,-8174.8613,-8227.755,-8230.028,-8222.49,-8231.561
-8224.128,-8183.1875,-8138.5967,-8127.4614,-8130.8774,-8130.976,-8149.9976,-8168.301,-8159.3364,-8163.689,-8179.0186,-8165.666,-8163.352,-8172.898,-8152.9307,-8110.5073,-8079.3716,-8107.0903,-8135.3247,-8110.581,-8094.7617,-8093.312,-8096.2056,-8094.327,-8083.1445,-8107.75,-8127.4204,-8108.562,-8097.0796,-8095.774,-8105.276,-8122.86,-8133.9385,-8159.1704,-8183.9507,-8158.6157,-8106.554,-8104.0347,-8157.981,-8189.091,-8132.6357,-8055.731,-8063.2627,-8110.199,-8133.2837,-8141.3823,-8125.925,-8103.618,-8100.532,-8118.312,-8129.239,-8112.124,-8119.8896,-8145.616,-8144.1323,-8139.631,-8133.885,-8133.1006,-8143.0176,-8140.751,-8154.8677,-8202.774,-8235.95,-8237.761,-8223.334,-8185.195,-8153.774,-8155.101,-8171.4927,-8189.454,-8186.927,-8175.288,-8162.877,-8144.6865,-8137.074,-8141.051,-8166.0923,-8177.8516,-8166.521,-8171.591,-8173.842,-8172.7944,-8176.3066,-8190.93,-8200.499,-8183.232,-8187.856,-8200.606,-8194.027,-8184.956,-8181.807,-8196.843,-8198.912,-8178.94,-8159.44,-8154.167,-8164.8174,-8172.5947,-8194.674,-8206.445,-8193.38,-8224.403,-8244.941,-8216.01,-8206.769,-8168.3564,-8124.582,-8133.162,-8125.7476,-8115.6074,-8103.2812,-8089.687,-8107.413,-8111.293,-8102.381,-8090.2515,-8088.1816,-8100.7666,-8099.5596,-8106.9224,-8114.2686,-8112.0933,-8114.34,-8124.9155,-8143.712,-8147.8936,-8144.277,-8151.6836,-8168.63,-8174.9346,-8170.4697,-8145.653,-8102.2295,-8113.7026,-8128.231,-8105.7964,-8115.4937,-8110.87,-8086.5205,-8092.609,-8123.4214,-8143.855,-8129.0327,-8122.7427,-8109.732,-8083.8286,-8083.5625,-8083.239,-8086.5933,-8090.389,-8080.667,-8075.8413,-8078.5474,-8083.1543,-8075.472,-8059.696,-8053.468,-8057.813,-8059.6587,-8046.6694,-8029.0063,-8016.6123,-8011.463,-8028.7573,-8058.7515,-8079.1387,-8101.8096,-8087.9272,-8032.288,-8014.953,-8019.6016,-8022.1157,-8020.7812,-7997.7676,-7989.4453,-7973.4707,-7955.5957,-7988.185,-8020.6973,-8021.4536,-7994.223,-7954.715,-7944.226,-7950.6865,-7951.938,-7933.8096,-7903.34,-7922.019,-7996.86,-8045.68,-8027.272,-7987.1577,-7963.376,-7967.098,-7977.4507,-7963.5557,-7942.6294,-7915.001,-7904.113,-7929.091,-7924.8438,-7895.019,-7886.667,-7888.115,-7907.6113,-7949.6123,-7963.7593,-7932.2666,-7891.1523,-7874.3687,-7876.4277,-7865.375,-7864.473,-7872.8813,-7867.142,-7891.181,-7917.654,-7904.02,-7887.682,-7875.6616,-7870.1377,-7893.572,-7920.5464,-7912.2153,-7892.711,-7887.182,-7887.4375,-7881.544,-7859.312,-7852.2954,-7861.6963,-7875.5127,-7912.1987,-7923.7676,-7883.8037,-7854.213,-7871.711,-7883.2227,-7865.5493,-7856.665,-7846.5317,-7845.18,-7849.597,-7837.7783,-7831.2827,-7820.6855,-7821.619,-7836.691,-7831.3345,-7817.1724,-7797.2363,-7788.2188,-7804.889,-7817.6387,-7816.2617,-7815.3203,-7835.321,-7847.7783,-7817.8657,-7810.3003,-7857.1953,-7881.2534,-7838.529,-7786.903,-7791.1284,-7812.7876,-7819.307,-7837.3623,-7820.3325,-7779.75,-7802.3306,-7825.8257,-7811.2075,-7817.729,-7824.713,-7824.396,-7830.9062,-7846.468,-7876.1543,-7873.7163,-7838.048,-7813.147,-7819.962,-7854.5117,-7883.458,-7886.945,-7862.714,-7852.133,-7874.6357,-7884.59,-7883.9453,-7896.6846,-7913.877,-7921.21,-7927.7534,-7941.881,-7948.916,-7951.002,-7928.4336,-7882.4785,-7893.463,-7954.39,-7974.484,-7953.8,-7939.54,-7942.806,-7947.3604,-7946.304,-7957.0864,-7955.275,-7939.054,-7966.3423,-7999.721,-7999.5044,-8007.956,-8014.777,-8014.797,-8018.7607,-8015.8804,-8023.206,-8032.5635,-8034.37,-8037.7656,-8039.7153,-8046.2183,-8050.939,-8053.158,-8060.8745,-8074.686,-8099.3677,-8117.5767,-8106.9697,-8076.3076,-8075.922,-8143.5986,-8231.177,-8248.769,-8175.072,-8094.587,-8069.336,-8079.1465,-8093.4365,-8086.857,-8081.0127,-8104.321,-8117.8203,-8113.111,-8133.026,-8177.9272,-8202.34,-8183.972,-8164.9214,-8166.1953,-8166.3477,-8172.9116,-8183.509,-8182.412,-8175.297,-8184.753,-8195.895,-8172.671,-8176.2373,-8242.13,-8281.296,-8264.04,-8258.643,-8273.584,-8265.585,-8249.544,-8249.152,-8251.556,-8243.63,-8233.877,-8228.938,-8216.09,-8228.329,-8267.642,-8261.207,-8229.99,-8224.322,-8226.019,-8230.09,-8232.216,-8233.076,-8223.784,-8203.91,-8203.821,-8202.845,-8204.171,-8226.975,-8237.088,-8214.396,-8182.232,-8181.5215,-8195.434,-8206.334,-8214.213,-8204.587,-8203.532,-8225.453,-8248.467,-8232.919,-8201.903,-8192.057,-8179.1816,-8187.324,-8204.648,-8212.63,-8222.925,-8204.3,-8195.309,-8202.49,-8184.092,-8168.657,-8156.505,-8172.129,-8226.161,-8235.812,-8212.777,-8193.661,-8165.6855,-8158.1406,-8155.4062,-8163.3975,-8194.272,-8187.4536,-8172.483,-8180.517,-8175.358,-8177.8203,-8186.3906,-8175.647,-8171.137,-8168.2866,-8136.9414,-8115.6123,-8140.349,-8180.5654,-8214.066,-8224.917,-8215.497,-8213.2705,-8228.166,-8255.968,-8254.981,-8244.457,-8267.163,-8255.58,-8207.009,-8193.743,-8205.585,-8213.556,-8224.24,-8228.548,-8231.192,-8238.804,-8226.939,-8230.053,-8252.949,-8259.581,-8271.592,-8270.926,-8254.74,-8253.703,-8264.461,-8286.578,-8286.159,-8244.599,-8222.449,-8257.975,-8308.748,-8342.483,-8345.775,-8299.787,-8264.549,-8275.471,-8286.309,-8283.203,-8255.541,-8240.13,-8273.8545,-8292.262,-8281.599,-8275.821,-8268.919,-8260.3,-8278.155,-8320.811,-8335.146,-8317.731,-8300.199,-8299.892,-8309.693,-8309.919,-8309.845,-8310.099,-8309.664,-8305.404,-8307.527,-8320.744,-8321.444,-8333.833,-8346.433,-8330.363,-8322.41,-8327.96,-8333.365,-8325.115,-8297.521,-8299.804,-8337.123,-8368.661,-8384.946,-8367.752,-8339.222,-8326.353,-8333.174,-8370.437,-8357.769,-8314.2705,-8334.933,-8351.588,-8342.594,-8347.981,-8353.568,-8340.799,-8318.476,-8332.6,-8353.155,-8356.333,-8364.142,-8341.343,-8315.167,-8323.975,-8339.58,-8350.138,-8346.251,-8343.88,-8360.824,-8365.752,-8349.268,-8330.194,-8315.244,-8333.429,-8367.641,-8356.241,-8368.009,-8418.358,-8402.571,-8360.89,-8346.046,-8350.828,-8368.511,-8373.958,-8391.05,-8401.7,-8378.4,-8360.236,-8358.186,-8356.207,-8361.68,-8369.396,-8351.429,-8340.282,-8338.019,-8325.711,-8341.616,-8354.384,-8351.039,-8357.409,-8354.946,-8350.12,-8333.755,-8312.167,-8328.785,-8356.244,-8361.436,-8365.711,-8361.233,-8352.326,-8361.351,-8356.598,-8350.011,-8360.162,-8355.492,-8354.16,-8357.738,-8345.588,-8333.939,-8319.194,-8313.477,-8331.265,-8341.99,-8365.983,-8400.962,-8394.895,-8384.823,-8369.045,-8342.475,-8372.35,-8425.169,-8461.053,-8467.572,-8413.456,-8365.591,-8361.871,-8339.102,-8332.386,-8378.508,-8395.884,-8388.759,-8391.732,-8363.183,-8329.621,-8337.973,-8357.292,-8339.819,-8308.383,-8348.637,-8384.125,-8334.969,-8339.926,-8364.938,-8364.824,-8389.442,-8364.062,-8342.339,-8320.494,-8334.22,-8389.607,-8354.855,-8379.537,-8396.424,-8363.014,-8400.565,-8372.584,-8342.552,-8317.221,-8344.691,-8424.351,-8362.166,-8366.551,-8382.637,-8329.861,-8372.406,-8372.659,-8379.084,-8356.498,-8280.967,-8344.077,-8384.459,-8350.927,-8352.185,-8345.043,-8373.391,-8408.653,-8366.947,-8317.434,-8297.436,-8351.012,-8377.707,-8294.119,-8350.116,-8394.653,-8335.819,-8354.75,-8319.189,-8324.965,-8326.304,-8325.494,-8413.29,-8353.288,-8334.144,-8376.376,-8359.437,-8394.864,-8361.06,-8327.073,-8313.048,-8292.576,-8371.054,-8384.862,-8339.545,-8361.781,-8347.811,-8341.987,-8359.177,-8325.944,-8307.699,-8271.525,-8311.007,-8349.868,-8254.601,-8291.211,-8288.8,-8245.06,-8343.067,-8314.216,-8266.007,-8238.771,-8284.781,-8369.55,-8262.114,-8291.176,-8316.632,-8256.117,-8331.235,-8312.61,-8297.632,-8226.238,-8187.458,-8335.045,-8290.153,-8246.214,-8309.765,-8274.558,-8284.634,-8292.941,-8266.8955,-8251.369,-8195.671,-8236.989,-8310.804,-8269.106,-8308.634,-8343.894,-8303.348,-8350.081,-8342.582,-8313.191,-8280.959,-8237.449,-8328.582,-8331.922,-8276.644,-8328.034,-8321.983,-8329.672,-8359.929,-8300.169,-8210.409,-8148.97,-8247.189,-8324.076,-8230.2705,-8263.23,-8271.269,-8218.797,-8271.269,-8214.114,-8185.391,-8195.722,-8234.24,-8398.019,-8361.249,-8272.877,-8322.513,-8326.325,-8365.55,-8389.199,-8295.1875,-8210.878,-8171.5273,-8191.963,-8290.201,-8294.372,-8219.216,-8260.346,-8308.759,-8305.395,-8287.346,-8216.258,-8194.696,-8183.9604,-8246.482,-8323.146,-8243.304,-8326.449,-8368.79,-8254.472,-8259.168,-8201.732,-8211.6455,-8231.647,-8250.935,-8364.017,-8276.739,-8249.309,-8302.356,-8277.96,-8327.686,-8308.212,-8270.683,-8233.711,-8163.3438,-8248.601,-8321.72,-8261.703,-8303.97,-8338.733,-8287.307,-8319.814,-8291.892,-8241.059,-8219.989,-8213.837,-8348.085,-8356.715,-8302.769,-8345.334,-8279.371,-8265.754,-8314.438,-8317.804,-8290.52,-8204.433,-8272.207,-8342.653,-8260.377,-8294.738,-8309.696,-8344.315,-8454.483,-8383.688,-8340.981,-8309.955,-8327.048,-8467.606,-8402.626,-8387.199,-8394.818,-8291.361,-8327.316,-8286.9,-8263.844,-8274.568,-8200.63,-8310.469,-8373.341,-8302.108,-8358.104,-8360.562,-8301.815,-8332.921,-8310.325,-8273.217,-8247.719,-8275.509,-8391.211,-8334.449,-8329.245,-8402.427,-8321.478,-8335.716,-8348.108,-8317.767,-8282.676,-8229.531,-8341.269,-8365.46,-8318.803,-8357.393,-8290.4375,-8303.267,-8392.814,-8415.636,-8444.842,-8365.91,-8372.484,-8423.311,-8286.215,-8329.45,-8387.781,-8325.219,-8396.758,-8373.932,-8353.3,-8344.871,-8245.853,-8303.202,-8395.145,-8384.806,-8370.137,-8400.32,-8367.859,-8336.456,-8392.466,-8362.52,-8300.026,-8253.225,-8334.519,-8421.887,-8341.365,-8390.488,-8375.16,-8321.673,-8390.308,-8337.801,-8323.89,-8299.823,-8357.08,-8459.159,-8332.259,-8381.556,-8441.296,-8376.587,-8453.107,-8405.309,-8341.606,-8307.25,-8258.082,-8398.473,-8444.56,-8360.485,-8403.989,-8408.634,-8365.459,-8401.4795,-8390.492,-8370.731,-8335.941,-8323.4375,-8408.1455,-8358.005,-8360.992,-8425.005,-8364.847,-8397.617,-8370.984,-8312.672,-8303.396,-8263.919,-8382.09,-8433.153,-8369.456,-8420.73,-8400.798,-8371.909,-8419.194,-8390.512,-8364.844,-8318.3545,-8330.604,-8409.19,-8342.478,-8366.655,-8399.147,-8315.604,-8331.202,-8295.31,-8286.25,-8289.86,-8242.146,-8361.118,-8397.786,-8307.675,-8335.569,-8337.376,-8313.426,-8364.635,-8347.166,-8291.424,-8255.433,-8263.13,-8333.012,-8285.054,-8270.138,-8320.665,-8295.678,-8339.568,-8337.124,-8307.466,-8287.343,-8222.621,-8301.337,-8357.118,-8334.0205,-8374.581,-8345.228,-8334.873,-8347.914,-8280.495,-8245.873,-8191.279,-8230.815,-8306.575,-8232.165,-8308.311,-8362.702,-8295.566,-8311.92,-8244.863,-8239.521,-8241.903,-8196.055,-8303.534,-8322.658,-8255.673,-8265.459,-8243.742,-8217.958,-8254.525,-8271.733,-8267.901,-8236.344,-8195.395,-8277.723,-8311.558,-8275.6455,-8323.236,-8288.409,-8244.577,-8279.515,-8263.891,-8263.039,-8297.868,-8363.243,-8371.883,-8273.14,-8296.356,-8307.352,-8240.015,-8268.068,-8260.619,-8244.639,-8208.303,-8216.859,-8327.857,-8299.008,-8294.524,-8345.266,-8283.159,-8260.108,-8254.099,-8233.236,-8241.046,-8228.898,-8274.227,-8317.87,-8259.541,-8272.242,-8290.065,-8251.249,-8277.759,-8263.539,-8247.614,-8229.367,-8238.976,-8316.444,-8268.471,-8270.094,-8298.4375,-8272.233,-8324.222,-8285.16,-8258.276,-8266.088,-8280.105,-8347.24,-8283.386,-8289.878,-8346.232,-8287.603,-8265.947,-8232.744,-8222.938,-8248.303,-8310.278,-8379.592,-8307.8545,-8268.196,-8278.282,-8253.027,-8256.223,-8225.657,-8221.355,-8239.817,-8234.803,-8277.359,-8270.995,-8209.603,-8226.326,-8272.682,-8297.051,-8308.14,-8284.618,-8274.789,-8273.879,-8314.166,-8383.081,-8349.317,-8315.6,-8290.227,-8252.214,-8286.658,-8300.959,-8276.18,-8203.718,-8194.367,-8261.869,-8236.581,-8265.297,-8290.128,-8245.203,-8270.407,-8289.736,-8324.792,-8309.398,-8252.31,-8283.811,-8267.405,-8256.07,-8303.799,-8328.684,-8372.818,-8374.106,-8311.461,-8257.122,-8231.422,-8232.913,-8252.123,-8264.671,-8245.28,-8238.98,-8246.132,-8265.817,-8292.168,-8269.043,-8278.204,-8324.189,-8335.3,-8284.57,-8204.704,-8224.058,-8252.701,-8278.043,-8344.702,-8317.979,-8274.091,-8228.936,-8208.7295,-8264.344,-8268.589,-8295.756,-8332.989,-8332.733,-8323.379,-8263.466,-8249.251,-8232.158,-8239.708,-8284.292,-8219.227,-8210.974,-8230.957,-8232.0205,-8279.246,-8263.199,-8312.046,-8362.342,-8357.729,-8385.362,-8303.502,-8237.193,-8223.637,-8196.307,-8232.469,-8237.311,-8228.84,-8237.299,-8235.937,-8254.206,-8243.138,-8234.5,-8252.541,-8248.335,-8258.314,-8271.021,-8251.426,-8261.206,-8295.648,-8317.241,-8302.726,-8254.777,-8237.722,-8211.616,-8205.229,-8257.169,-8264.317,-8246.722,-8244.635,-8278.3955,-8302.38,-8255.93,-8233.402,-8252.501,-8330.701,-8401.802,-8368.263,-8295.21
