SampleData
13462.648,34540.844,9667.328,-19439.55,7174.6055,3333.1743,-9194.819,9403.144,-3665.5566,647.32776,5581.959,-4485.5947,6170.1274,-1901.5508,676.266,2296.5383,-3615.3267,2823.3452,-3509.9023,-54.851097,-920.6583,-2818.9583,927.4854,-2959.2336,833.4937,-870.84045,-127.24316,1361.2887,-448.0976,2148.9382,223.95013,1455.3834,1064.353,266.1178,1136.5929,-537.3837,288.12454,-772.89435,-835.67395,-742.86346,-1459.3584,-710.15765,-1268.5056,-639.36554,-523.34485,-355.63702,284.3769,167.39142,785.7363,703.3995,885.95874,940.6442,672.5928,721.96136,276.24667,152.59143,-189.83226,-477.27747,-606.2682,-883.5763,-844.0505,-925.9347,-800.7018,-635.2286,-472.00223,-160.97963,25.193766,310.75775,482.34537,618.55676,714.6075,673.2439,632.6187,464.57382,290.27893,74.18037,-162.99469,-354.3184,-548.22656,-655.5311,-726.0882,-720.1704,-646.43445,-532.9319,-354.466,-172.44542,31.008774,215.67516,365.79303,480.11194,529.01666,531.1146,467.97458,358.29913,213.9761,42.92101,-129.16743,-293.53583,-425.89905,-521.7898,-568.642,-564.10876,-513.9897,-416.28436,-289.93307,-143.57301,6.8400397,146.26228,263.92502,345.13525,387.8097,385.00226,338.5535,256.57074,146.86061,21.846191,-108.80735,-229.76218,-328.54407,-398.19424,-433.20703,-431.47083,-393.18747,-323.3371,-228.96982,-121.66765,-12.734321,89.232666,172.96986,232.17426,262.19342,259.42697,227.17398,167.99448,88.47374,0.17034422,-90.44185,-175.8622,-245.88304,-294.9316,-319.9773,-317.42786,-289.65994,-242.25847,-177.03564,-102.26777,-27.847126,41.27016,98.32126,138.46254,157.57202,155.28014,133.57794,93.37356,41.617115,-16.618273,-76.989334,-132.46838,-178.44064,-209.32997,-224.1266,-223.08022,-204.70888,-174.05072,-134.40799,-87.38022,-39.78243,2.290495,36.35869,60.36268,71.34393,70.376335,57.52278,32.839985,2.4368658,-31.798222,-66.34521,-96.45759,-121.80338,-138.70192,-146.65506,-145.78842,-135.8207,-119.410706,-97.74056,-74.095184,-50.44609,-29.51746,-13.747964,-1.4203764,3.3970895,0.8710145,-4.4136486,-15.145023,-28.635689,-42.368843,-57.370773,-69.31043,-78.40897,-84.49054,-86.5781,-85.9779,-81.109764,-75.47881,-70.047455,-63.83372,-58.32521,-53.328552,-52.113995,-51.48963,-50.214073,-51.69029,-52.38078,-53.558975,-54.48066,-53.25545,-51.413033,-48.317715,-45.806477,-42.461857,-39.932976,-40.03629,-39.526733,-41.777287,-48.189083,-55.55809,-63.157322,-71.29068,-79.0666,-86.26325,-91.12678,-90.86244,-88.15162,-81.89367,-71.53525,-60.362965,-46.88807,-33.529243,-21.842543,-11.678308,-6.3479433,-6.313693,-10.814492,-18.781723,-31.404295,-47.956024,-65.812256,-84.44352,-100.03324,-111.78116,-118.8167,-118.92956,-113.22601,-102.09002,-86.41302,-66.09948,-44.394897,-23.37128,-4.329542,8.440623,16.319427,17.779255,11.8823,-0.9709876,-20.883818,-43.118168,-67.561005,-92.021,-112.42114,-127.4719,-136.76834,-139.21507,-130.64209,-115.526344,-96.214714,-70.06118,-42.602226,-17.119654,4.6580048,21.565592,32.8486,33.693546,25.013842,9.342288,-13.57253,-40.237526,-68.06371,-95.713486,-119.788994,-137.69225,-147.47195,-147.855,-139.99812,-124.01752,-100.44463,-73.10558,-43.744816,-15.063171,9.257256,28.632324,39.644863,39.78593,30.891361,13.321605,-10.132954,-37.3024,-68.81678,-98.12851,-122.6117,-142.11815,-151.69571,-153.12946,-145.06725,-127.33134,-104.07895,-74.57702,-43.864826,-14.577677,12.16792,29.94621,40.225693,42.371532,32.942223,16.15017,-8.410861,-37.953083,-66.9825,-97.37262,-122.96718,-140.71736,-152.04828,-152.7777,-144.74971,-128.14809,-103.4318,-75.19708,-45.3911,-16.733738,8.450674,27.031576,37.096714,38.71637,30.953468,14.780947,-8.064738,-35.655647,-65.698586,-95.21271,-120.01654,-137.82156,-148.096,-149.16776,-141.01868,-125.484604,-102.34262,-74.463135,-45.799232,-18.115385,4.92448,22.569017,33.39635,33.79293,25.60123,10.734158,-10.634526,-36.74083,-65.35943,-92.47579,-114.90713,-132.285,-142.66821,-142.7942,-134.48238,-121.1735,-100.57824,-74.423706,-47.754547,-21.246975,1.1234478,16.213512,24.764769,25.959486,19.577581,5.8551903,-14.559086,-37.736687,-61.90975,-87.3509,-108.35922,-123.66251,-134.35323,-135.41945,-128.09303,-114.910904,-95.34169,-72.865845,-49.40198,-26.08766,-6.805453,8.080659,16.983383,16.848522,10.786892,-0.29604226,-17.622591,-39.144615,-61.316177,-83.08827,-103.11798,-115.88471,-123.22217,-125.795456,-120.23562,-108.90665,-91.95815,-71.97363,-50.993496,-29.816647,-12.833076,0.22715934,8.1191635,9.323935,4.252423,-7.234082,-22.484991,-40.959766,-60.35696,-79.277176,-97.066124,-107.93734,-114.08199,-116.60351,-111.45758,-102.0139,-87.64487,-69.69221,-52.897152,-34.76299,-18.815493,-7.6140976,-0.28015834,-0.2783614,-4.594221,-13.015677,-27.552967,-43.580833,-59.580498,-75.223114,-89.67559,-100.50494,-106.02128,-107.56695,-103.13998,-94.20456,-83.164764,-68.873276,-53.583275,-39.0493,-25.384298,-15.264142,-10.546542,-9.590638,-12.315024,-19.400875,-30.490469,-44.10252,-58.37838,-72.65811,-83.23868,-91.18751,-97.34988,-98.41385,-95.834625,-88.816086,-78.638054,-66.76431,-54.030846,-41.863857,-30.509882,-24.18579,-19.568394,-17.225046,-20.5706,-26.014208,-35.297626,-45.420033,-55.841263,-68.14961,-77.73363,-84.82323,-89.0344,-90.15377,-88.42381,-83.55522,-75.31031,-63.960434,-54.214687,-45.08237,-36.425434,-30.613573,-25.650517,-24.847012,-28.051243,-32.785706,-40.213623,-47.8001,-55.79614,-65.13391,-72.96958,-78.222435,-82.44693,-84.032265,-81.322914,-77.32437,-71.16386,-63.668976,-56.414516,-47.624447,-40.232265,-35.555405,-32.82299,-31.61092,-33.056755,-37.28276,-42.376484,-49.29573,-55.859627,-62.574055,-68.654305,-72.02695,-75.33913,-75.46233,-74.01493,-72.07928,-67.53826,-62.572643,-56.126205,-50.796364,-45.87094,-40.938046,-39.033825,-37.392944,-38.092083,-41.921642,-46.04618,-50.164913,-55.013466,-60.232563,-63.93635,-67.77168,-70.1222,-70.088844,-69.68578,-67.39935,-64.88936,-61.566017,-56.895584,-53.228848,-48.642593,-44.749,-43.64825,-43.848377,-44.440952,-45.351727,-47.8433,-51.367683,-55.60307,-58.733513,-61.006466,-64.622314,-65.80845,-66.001854,-65.83558,-63.43242,-61.829548,-59.414932,-56.940952,-54.403793,-50.862152,-49.852093,-48.704525,-47.80293,-48.682667,-48.449116,-49.75934,-53.156414,-55.34246,-56.41095,-58.53144,-61.344215,-62.49535,-62.655884,-61.845264,-60.67237,-60.884357,-59.3758,-56.715237,-55.876003,-54.663307,-52.699314,-51.3171,-51.14457,-51.04978,-51.063843,-52.77343,-53.427734,-53.89576,-56.019485,-57.71545,-58.62534,-58.216187,-58.390896,-59.13532,-58.410706,-58.46428,-58.18194,-56.42052,-55.76869,-55.65206,-54.674244,-53.813675,-53.734303,-53.78774,-54.069145,-54.683514,-54.64699,-53.90173,-54.314724,-55.886864,-55.84789,-55.58887,-56.388775,-56.648727,-57.24355,-57.109623,-56.463165,-56.619858,-56.570698,-56.87558,-56.374653,-56.412533,-57.084953,-55.810364,-55.9008,-55.61566,-54.078934,-54.50358,-54.142727,-54.599133,-55.805813,-54.502216,-54.234554,-55.475006,-55.690884,-55.40805,-55.898136,-56.777058,-57.065945,-57.540405,-57.62275,-57.429646,-57.897484,-57.734222,-57.217285,-56.79061,-56.04817,-55.075706,-54.374447,-53.67182,-52.263966,-52.399696,-53.54269,-53.431828,-53.722027,-55.168034,-56.085552,-56.78605,-58.486088,-58.698807,-58.530205,-58.650078,-57.669888,-58.24782,-57.833023,-57.38572,-57.226974,-54.393948,-54.19909,-54.04124,-52.185764,-52.260662,-51.71548,-52.606106,-54.09489,-54.050896,-55.660378,-56.89215,-57.90581,-59.136055,-58.96433,-59.798637,-59.42724,-58.44469,-58.851025,-57.543694,-56.095882,-55.069595,-54.266975,-53.471436,-52.130547,-52.03154,-52.100346,-52.481014,-52.978527,-53.611454,-55.44146,-56.722286,-57.609756,-58.95499,-59.912357,-59.63374,-59.638046,-59.717518,-58.963398,-58.002953,-56.03784,-54.993916,-53.88837,-52.899075,-53.33058,-51.95608,-51.732338,-52.286133,-51.70872,-53.62621,-56.235504,-56.87208,-57.111034,-58.48288,-59.401947,-60.342712,-60.98691,-60.208435,-60.156483,-58.32534,-55.93539,-55.28012,-53.99244,-52.80001,-51.444115,-51.376564,-52.114445,-51.46286,-52.28673,-54.00827,-55.277767,-57.269985,-58.496372,-58.626293,-58.770496,-59.18386,-60.268837,-59.73769,-58.57407,-58.9134,-57.08296,-54.847824,-54.17707,-52.624336,-51.68217,-51.75954,-51.692726,-51.593494,-52.503117,-54.3901,-54.96383,-55.342274,-57.517635,-58.99536,-59.527245,-59.66206,-58.740463,-59.839417,-60.69134,-58.67332,-56.95452,-56.033092,-55.818535,-54.59577,-52.802574,-51.9685,-51.75028,-52.36039,-52.144577,-53.943836,-56.005856,-55.869404,-57.92089,-59.010815,-59.24967,-59.67904,-58.806164,-59.303047,-58.432774,-56.67503,-56.099365,-55.68763,-55.358654,-53.669785,-53.1604,-53.680916,-53.23313,-53.092903,-52.86349,-53.756363,-55.333122,-56.409733,-57.78418,-58.056404,-58.164577,-59.795067,-60.41777,-58.985012,-58.18332,-58.052547,-56.433983,-55.58313,-55.465607,-54.102432,-54.03735,-53.95277,-53.476326,-53.91278,-53.443127,-53.191833,-54.001003,-56.04422,-57.322777,-58.04249,-59.657494,-58.844624,-58.144394,-58.73238,-58.717655,-57.91635,-56.284897,-56.2567,-55.097298,-53.972954,-54.880394,-53.865093,-53.370926,-53.925076,-53.959248,-54.31176,-54.87085,-55.185917,-55.646397,-57.465702,-58.069916,-58.924217,-59.755558,-57.795895,-58.22019,-58.360653,-56.084698,-55.638695,-55.311626,-54.502296,-53.906555,-53.91723,-53.858837,-54.059475,-54.47993,-54.128796,-55.517727,-55.986805,-56.30211,-58.349133,-57.771378,-57.537235,-57.857563,-57.74582,-58.637177,-57.03985,-55.780373,-55.99803,-54.26245,-53.307472,-53.92535,-54.060738,-53.817898,-54.69767,-56.16649,-55.246815,-54.747845,-56.72046,-57.344418,-57.583206,-57.69709,-56.7352,-57.530716,-58.29402,-57.21783,-56.960236,-57.293602,-56.374336,-56.096516,-55.75686,-53.413197,-53.322227,-54.776703,-54.66579,-55.012615,-55.847584,-55.95854,-55.505917,-56.56242,-57.497295,-57.06573,-57.27042,-56.49965,-57.09846,-57.15652,-55.243484,-56.77276,-56.70376,-55.803234,-56.35417,-54.51313,-54.48684,-54.849728,-54.776653,-55.34944,-54.705833,-55.254307,-55.30284,-55.639576,-56.943058,-56.322784,-56.54229,-57.784195,-57.47254,-56.711636,-56.58848,-55.922615,-55.652985,-56.085205,-56.21171,-56.179443,-55.278847,-55.137924,-54.72598,-54.419254,-55.331726,-54.934654,-55.59171,-55.97139,-56.292065,-57.26074,-56.108376,-56.555264,-56.882473,-57.08894,-58.285084,-56.9016,-56.2632,-55.759872,-54.745716,-55.36912,-55.464085,-55.51809,-55.301113,-54.55336,-54.648834,-54.694206,-55.560932,-56.96678,-56.57001,-56.41454,-56.905178,-56.837467,-56.99138,-56.496025,-56.543064,-56.50864,-55.310333,-55.233192,-55.630234,-56.008698,-56.060383,-55.488987,-55.487427,-55.785812,-55.52649,-55.23284,-55.875618,-56.124943,-55.423218,-55.37995,-56.17928,-56.32173,-56.360332,-57.024147,-56.599014,-56.371956,-56.599552,-56.033333,-55.946514,-55.78597,-55.55801,-55.467426,-55.37061,-56.316525,-56.925697,-56.455585,-56.273895,-56.147552,-56.292694,-56.87164,-56.050884,-55.61532,-56.8397,-56.599632,-55.994366,-56.23518,-56.15663,-56.11588,-55.385387,-55.430122,-56.066864,-55.368732,-55.15429,-55.026173,-55.82497,-57.081493,-56.40396,-56.358727,-56.13497,-55.323093,-55.28618,-55.410732,-56.29469,-56.431892,-56.104385,-56.23834,-56.411484,-57.17765,-56.835754,-56.148266,-56.551266,-55.91444,-55.52201,-56.15935,-55.875084,-56.261868,-56.861565,-56.026466,-55.80599,-55.70049,-55.30458,-56.496067,-56.74529,-55.702225,-55.79761,-55.9757,-56.71092,-56.6863,-55.93849,-56.42316,-56.130463,-56.502598,-57.073406,-56.07014,-55.71127,-55.469242,-55.32215,-55.744637,-56.272583,-56.543774,-55.273697,-54.92827,-56.09128,-56.38735,-56.08414,-54.480453,-55.133896,-57.073093,-56.28455,-57.125553,-56.990067,-55.632366,-56.095253,-56.072582,-56.627354,-56.444122,-55.805305,-55.329,-55.187138,-55.65457,-55.043633,-55.729885,-56.146614,-55.769485,-55.47105,-55.26396,-56.546978,-55.89406,-55.136227,-55.598034,-56.099586,-57.12639,-56.25856,-56.07957,-56.64595,-56.14587,-55.767143,-55.756626,-56.337933,-55.0489,-54.732647,-56.228092,-56.087547,-55.969532,-55.12669,-55.764114,-56.831486,-55.363697,-55.98798,-56.727047,-56.145252,-56.043167,-56.038784,-56.421608,-56.197437,-56.15056,-55.900455,-56.37133,-56.559338,-54.93262,-55.333927,-55.32426,-55.102745,-56.67962,-56.7961,-56.434177,-55.97455,-55.83084,-56.191612,-56.221878,-56.332054,-55.485054,-55.195347,-56.179657,-56.79518,-56.311665,-55.63212,-56.530376,-56.884037,-56.29904,-56.272663,-55.688087,-56.011402,-56.579037,-55.720985,-55.840126,-55.786194,-55.60677,-56.61135,-56.08063,-55.92826,-56.080135,-55.201366,-56.08439,-56.392452,-56.18101,-56.023205,-55.49052,-56.275707,-55.584595,-55.51033,-56.55332,-55.504383,-55.24256,-55.876152,-56.092346,-56.271656,-56.20994,-55.762695,-55.947426,-56.23745,-55.5718,-55.717297,-55.8821,-56.361824,-56.06104,-54.726616,-55.676685,-55.153816,-55.299885
-57.327854,-56.09021,-56.00833,-56.5264,-55.58571,-55.20646,-55.10027,-56.565765,-56.190838,-55.13064,-56.65562,-56.48151,-55.644573,-55.94234,-55.562965,-55.515545,-55.886242,-55.656525,-55.72808,-55.625195,-55.634205,-56.810837,-56.735622,-55.900867,-55.73917,-55.406384,-55.45178,-55.88713,-56.457565,-56.214996,-55.883255,-56.248096,-55.855015,-55.836285,-55.887215,-56.000057,-56.827656,-55.667973,-54.58891,-55.140633,-55.06478,-55.58778,-56.386066,-56.383247,-56.03979,-55.97707,-56.342854,-55.759575,-55.57976,-56.000763,-55.821964,-56.204887,-55.799454,-55.08321,-55.97902,-56.195,-55.54871,-55.81028,-56.065235,-55.45034,-55.239334,-55.72312,-55.307304,-55.262997,-56.318474,-56.748154,-56.478046,-55.563934,-55.623505,-55.896416,-55.481453,-56.345158,-55.4545,-54.806034,-56.177135,-56.057884,-56.36385,-55.74783,-55.326878,-56.236595,-55.81214,-55.84274,-55.72534,-56.029476,-55.64927,-55.346046,-56.797966,-55.93286,-55.29073,-55.675392,-55.792233,-56.014153,-55.448727,-55.62926,-55.791904,-55.6238,-55.78347,-56.56674,-56.496525,-55.72865,-56.37153,-55.903606,-55.879368,-56.555077,-55.530106,-55.758835,-56.115826,-55.27738,-55.379623,-55.692146,-56.0033,-56.421154,-55.816963,-55.82623,-56.619682,-55.59614,-55.1954,-55.998642,-55.365627,-55.576324,-55.987488,-55.894287,-56.005806,-55.134487,-56.215233,-56.57362,-54.434917,-54.656143,-55.506077,-56.162025,-56.721203,-56.33474,-56.091503,-55.216087,-55.93661,-56.7814,-55.443127,-55.903515,-56.12885,-55.077244,-55.643253,-56.49789,-56.235836,-55.351696,-56.221226,-57.115215,-56.23187,-55.738564,-55.496464,-55.814007,-56.239574,-56.966286,-56.850563,-55.504456,-56.01944,-55.58521,-55.217403,-56.263252,-55.824913,-55.354595,-54.71941,-55.472534,-56.44314,-55.795288,-55.98089,-55.516926,-55.572723,-56.252876,-55.693966,-55.93996,-56.59724,-56.517097,-56.433952,-55.99882,-55.619026,-56.44548,-55.711533,-54.93086,-56.4893,-55.8766,-54.864407,-55.718872,-56.00485,-56.64404,-57.186752,-55.977406,-55.912376,-57.322155,-55.9227,-55.208683,-56.439728,-55.42924,-55.07188,-55.62574,-56.26982,-56.849693,-55.65546,-55.91076,-56.6981,-56.42597,-56.429493,-55.36428,-55.424526,-55.641277,-55.06346,-56.064003,-55.830193,-55.921585,-56.442482,-55.46973,-55.57359,-55.57178,-56.33101,-56.544033,-55.21336,-55.90896,-56.158463,-55.99349,-56.00555,-55.787144,-56.596283,-55.661495,-55.311314,-55.949234,-55.259354,-55.77458,-55.299496,-54.775352,-56.24879,-56.720417,-56.209675,-55.566742,-55.162685,-55.052586,-56.036903,-56.641533,-55.73957,-55.761986,-55.608295,-55.66863,-56.25043,-56.22978,-56.74515,-56.487247,-55.96462,-55.6041,-55.03867,-55.704563,-55.432823,-55.076202,-56.196438,-56.161076,-56.198444,-56.587708,-56.083065,-56.068535,-56.893482,-56.43576,-54.528507,-55.268,-55.80305,-54.6258,-56.11061,-56.716312,-56.321606,-56.032925,-54.8941,-55.488182,-55.666405,-55.68207,-55.97951,-55.79727,-56.45001,-56.18427,-56.288773,-56.01974,-55.016834,-55.46683,-55.302917,-55.355335,-55.839798,-56.218002,-56.604404,-55.874714,-55.7767,-55.607864,-54.54785,-55.32103,-56.52161,-55.924145,-56.098877,-56.50436,-55.573387,-55.129322,-56.015465,-56.945732,-56.067574,-56.311794,-56.705963,-55.75743,-55.783134,-54.89892,-55.701534,-55.974777,-54.73466,-55.950134,-56.06239,-56.237915,-56.114605,-55.803307,-56.362072,-55.427105,-55.92998,-56.20282,-55.710136,-56.238903,-56.230423,-56.077488,-55.738056,-56.050617,-56.004566,-55.24287,-55.364723,-55.781704,-56.36587,-56.600708,-56.24427,-56.243904,-56.338863,-55.758232,-56.00691,-55.95159,-55.697575,-56.775475,-55.743755,-55.49985,-55.560944,-54.94954,-57.025818,-55.997818,-55.465546,-56.26183,-54.798286,-56.43852,-56.456264,-55.343586,-55.878544,-56.013195,-57.276054,-56.205803,-55.44835,-56.289227,-56.35331,-56.785774,-55.205345,-55.043896,-56.059563,-55.491756,-56.840584,-56.688232,-55.267174,-56.508446,-56.851032,-55.048275,-54.10152,-55.481117,-56.23436,-55.087833,-55.436325,-56.224133,-55.93446,-55.70272,-55.3473,-56.24361,-56.934284,-55.89862,-55.342846,-55.257504,-55.38588,-55.211655,-55.69345,-56.938473,-56.532047,-56.375614,-56.48404,-55.602825,-55.896492,-56.369007,-55.442772,-55.123936,-55.364098,-55.33121,-55.965775,-55.81569,-55.92524,-56.925533,-56.71698,-57.100365,-56.64186,-55.174873,-55.746128,-55.892765,-56.072056,-56.72792,-56.184795,-56.640213,-57.072296,-57.07988,-56.55193,-54.883034,-55.47863,-56.219975,-56.11461,-56.304523,-55.540005,-56.078094,-56.359108,-56.10593,-56.387997,-55.802944,-56.133274,-55.811512,-54.835083,-55.255947,-56.147083,-56.901775,-56.224266,-56.067013,-55.93588,-53.918934,-54.01756,-55.650314,-56.009335,-55.960922,-56.428036,-56.81373,-56.16831,-55.851635,-55.795433,-55.61385,-55.65993,-55.99458,-56.661453,-55.91051,-55.339005,-56.346195,-56.215904,-55.55854,-56.26289,-56.508743,-56.052544,-56.343575,-56.116222,-55.795166,-56.13582,-56.178135,-55.940956,-55.396584,-55.21744,-55.952076,-56.54703,-56.011982,-56.086575,-57.108097,-56.230564,-55.197315,-56.4218,-56.66038,-56.09135,-56.502052,-55.630745,-55.667747,-55.871204,-54.922302,-55.412605,-54.772194,-55.309162,-56.03989,-54.966446,-55.931236,-56.21052,-56.18662,-55.45352,-55.05056,-56.862656,-55.902245,-55.04056,-55.24528,-54.88238,-56.204533,-56.50166,-55.2826,-55.638447,-56.462296,-55.27296,-55.084953,-56.129967,-55.78238,-56.08282,-56.167995,-56.06654,-56.58741,-56.46342,-56.757183,-56.40778,-55.670666,-56.052914,-56.487278,-56.17764,-55.47508,-55.826595,-56.02266,-55.791615,-56.629242,-56.781105,-56.29241,-56.022503,-55.89987,-56.480293,-56.54126,-56.26666,-55.775013,-54.612183,-55.287704,-56.55606,-56.17679,-56.178074,-56.100613,-55.32592,-55.514336,-56.1545,-56.496292,-56.732693,-56.75209,-56.536255,-56.07889,-56.04187,-56.16736,-55.844807,-55.412113,-55.2062,-55.669846,-55.65535,-55.993633,-57.07297,-56.485798,-55.688206,-56.178448,-56.97264,-56.68147,-55.95245,-55.789616,-55.487465,-56.120636,-56.646957,-56.01153,-55.62794,-55.79549,-55.97827,-56.17094,-56.665455,-55.861465,-55.137146,-56.01072,-55.598198,-55.133778,-56.777527,-56.878925,-55.90138,-56.834114,-56.205452,-55.56823,-56.35924,-55.617172,-56.13855,-56.304317,-55.0937,-55.396595,-56.147858,-56.547108,-55.929916,-55.684643,-55.509747,-55.25606,-56.055214,-56.105938,-56.504852,-56.294563,-55.879536,-57.105988,-56.635777,-55.86389,-56.701057,-56.725197,-55.99385,-55.716476,-55.770706,-56.135437,-56.48008,-56.145596,-55.748512,-55.961643,-55.853626,-55.52969,-56.08588,-55.640575,-55.548363,-55.9913,-54.933216,-56.02626,-56.053665,-55.2714,-57.024406,-56.200287,-55.945217,-56.398865,-55.139935,-55.76028,-56.456917,-56.705425,-56.306396,-55.248146,-56.36154,-57.507595,-56.372105,-55.992443,-55.852825,-54.830917,-55.319836,-54.788494,-54.947983,-56.729305,-56.502625,-56.402756,-56.294464,-56.551697,-56.518112,-55.685497,-55.84203,-55.25448,-55.796196,-56.655407,-56.480175,-57.135986,-55.848957,-54.799374,-56.61465,-56.04687,-55.08482,-56.420326,-55.90774,-56.001625,-56.174923,-55.626812,-56.45304,-55.350574,-55.495686,-56.36808,-55.78759,-56.257145,-55.556175,-55.810917,-55.918846,-54.900223,-56.140446,-56.521015,-56.44839,-56.89567,-56.370567,-55.962387,-55.59503,-55.564007,-55.508972,-55.449562,-56.261326,-56.537945,-55.556087,-55.16604,-56.20301,-56.498928,-56.02822,-55.207703,-54.654766,-55.94034,-56.146286,-56.06466,-56.798786,-56.306362,-56.34885,-56.21781,-55.823784,-55.597385,-55.50602,-56.117878,-55.809338,-55.96333,-55.65696,-55.424126,-56.459087,-55.328606,-55.548317,-56.620586,-55.67686,-56.498295,-56.680485,-55.429672,-55.21765,-55.35256,-56.022087,-56.016575,-55.99364,-55.92753,-54.895493,-55.47698,-56.20152,-56.002354,-55.610737,-55.23834,-56.205936,-56.325405,-55.889927,-56.35333,-56.420197,-55.815212,-55.871174,-56.600773,-55.319283,-54.931477,-55.614834,-54.97581,-55.831635,-56.21707,-55.959026,-55.647778,-55.035805,-56.579594,-56.865982,-55.6162,-55.744976,-55.796158,-55.75808,-55.917156,-55.939514,-55.952522,-55.786343,-55.719845,-56.53536,-56.869205,-55.68256,-55.804585,-55.80322,-55.398277,-56.791115,-55.704647,-55.041077,-56.678272,-56.048794,-56.288864,-56.2062,-55.271633,-56.10785,-55.308056,-54.60439,-55.740227,-56.315823,-55.914803,-55.699356,-56.13961,-55.592075,-55.41808,-55.751648,-55.430824,-55.859467,-56.109966,-56.34564,-56.491413,-56.01366,-55.870255,-55.4809,-55.520714,-55.325317,-55.372288,-56.560955,-55.710518,-55.75346,-57.531544,-56.626247,-55.671947,-55.517506,-55.317585,-55.595848,-55.54347,-55.880295,-55.96269,-55.970818,-55.544914,-55.964108,-57.645267,-55.99208,-55.37202,-56.58527,-55.185043,-55.935177,-56.886776,-55.520325,-55.632027,-56.533085,-57.026592,-56.201508,-55.658764,-56.26342,-55.949818,-56.366783,-56.432228,-55.464027,-55.849365,-56.258503,-56.162743,-56.39561,-56.968838,-56.130245,-55.385403,-56.42741,-55.319138,-55.152298,-56.532616,-55.55722,-56.157192,-57.279724,-55.925373,-55.03469,-55.86681,-55.808167,-54.995148,-55.234043,-55.648087,-55.983932,-55.04193,-55.430157,-56.61244,-56.309853,-57.209476,-56.131413,-55.844788,-56.471737,-54.935364,-56.086735,-56.280533,-55.85099,-56.448826,-55.539116,-56.273678,-56.698223,-56.051125,-56.317516,-56.554684,-56.167927,-55.646122,-55.944454,-55.25954,-55.291206,-56.52294,-56.188946,-56.37661,-55.812847,-54.54878,-54.864506,-55.28565,-56.2493,-55.785927,-54.997375,-56.589314,-56.622513,-56.277977,-56.218544,-55.069447,-56.064445,-55.93229,-54.849693,-55.75724,-55.215057,-56.31573,-57.154327,-55.221687,-55.733135,-55.5245,-55.10756,-56.528275,-56.319397,-55.47707,-55.53888,-56.214844,-55.68626,-56.024105,-57.334423,-55.51571,-54.92249,-56.635998,-56.5167,-56.349316,-56.061356,-55.188496,-55.31669,-55.812603,-57.027412,-56.48238,-54.917004,-56.14663,-56.17792,-56.48587,-57.34533,-55.68568,-55.85726,-55.44479,-55.09336,-56.35689,-55.53969,-55.986538,-56.138435,-55.932163,-56.555405,-55.471104,-55.853638,-56.08017,-55.35247,-55.541187,-55.682487,-56.22246,-56.47305,-56.873325,-56.464924,-55.601658,-55.90003,-55.82691,-55.552467,-55.248703,-55.796413,-56.640232,-56.204933,-55.79218,-55.79638,-55.906174,-55.828484,-56.109955,-55.981133,-55.395313,-55.507557,-55.51267,-56.48884,-56.599865,-55.818104,-56.419926,-56.112293,-56.01973,-56.12129,-55.8873,-56.271946,-55.611862,-55.610092,-56.2754,-55.506004,-55.14697,-56.23984,-56.942223,-56.454494,-55.56045,-55.39201,-55.867935,-55.59618,-56.36409,-56.77316,-55.83793,-56.62843,-56.524635,-56.489346,-56.02965,-54.72723,-56.02839,-55.917873,-56.10456,-56.48794,-55.74847,-56.165096,-55.639362,-56.67509,-56.903824,-55.581413,-54.84776,-54.688328,-56.238247,-55.67326,-55.899284,-56.251587,-55.324913,-56.62752,-56.19117,-55.826126,-55.83892,-55.318684,-56.085026,-55.69702,-55.841896,-55.862766,-55.916054,-56.80382,-55.61347,-55.472027,-55.857174,-55.1228,-55.324543,-55.270058,-55.835506,-56.241703,-56.36862,-57.41271,-56.43695,-55.575645,-56.407967,-56.21774,-56.107883,-55.993958,-55.458134,-55.547348,-55.50818,-55.4305,-55.379555,-56.125854,-56.73116,-55.669186,-55.635773,-55.764896,-55.371777,-55.042103,-54.230366,-55.291008,-55.83718,-55.906948,-56.731796,-55.82059,-55.876812,-55.591724,-54.73756,-55.627613,-55.855827,-55.73291,-55.924496,-56.84444,-56.946438,-56.131245,-56.002968,-55.43775,-55.791954,-56.2816,-56.011414,-55.49158,-55.28442,-56.452538,-56.993114,-56.21025,-55.805058,-56.179417,-55.30511,-55.175854,-56.280724,-55.684643,-55.45243,-55.505882,-55.321247,-55.14429,-55.970844,-56.86825,-55.983456,-56.39279,-55.872005,-55.154408,-55.650066,-55.07641,-55.743744,-55.94143,-56.53923,-56.960503,-55.98756,-57.022743,-56.359165,-55.864773,-56.590668,-55.188118,-55.539318,-55.48796,-54.35142,-55.82779,-56.820457,-55.540268,-55.058212,-55.702423,-55.292587,-55.68888,-56.125008,-55.546158,-56.126762,-56.143246,-56.245342,-56.787163,-56.076424,-56.141304,-56.732372,-55.775963,-55.09,-56.17211,-56.23822,-55.373215,-55.67278,-56.314354,-56.838253,-56.122627,-55.815327,-56.740635,-56.00852,-56.049686,-56.31785,-55.5356,-56.189945,-55.824986,-55.298733,-55.361164,-55.554,-56.754093,-55.76141,-55.369396,-56.281147,-55.74486,-56.151573,-55.777596,-55.533253,-56.49765,-55.873764,-55.97996,-55.970657,-55.692013,-56.87746,-55.895386,-55.457954,-56.272594,-55.00617,-55.248676,-56.297604,-56.011505,-56.114887,-57.05668,-56.542797,-54.682484,-55.400566,-56.242386,-54.92224,-54.432476,-55.7755,-55.82111,-54.65187,-56.170258,-56.675957,-55.38501,-55.697857,-56.074303,-56.013374,-55.57176,-55.710438,-56.458694,-56.439404,-55.322636,-55.124992,-56.934624,-56.235596,-54.9737,-56.31793,-55.972275,-55.438774,-55.84251,-54.814137,-55.606686,-57.0096,-55.74382,-55.659885,-56.35913,-55.601765,-55.647797,-55.919285,-55.682697,-55.567806,-55.147816,-55.223804,-55.80909,-56.096634,-55.7657,-54.553646,-54.94561,-55.86835,-55.088337,-56.35093,-56.874245,-55.813393
-56.533257,-55.342663,-55.344517,-56.600243,-55.90086,-56.97263,-56.586327,-55.64417,-56.443913,-56.08679,-56.32675,-56.15851,-55.650402,-55.596684,-55.77735,-56.53382,-56.197144,-56.004288,-55.406418,-55.08876,-55.83946,-55.333027,-55.37084,-55.748837,-55.500134,-55.591076,-55.6232,-55.92841,-56.04362,-55.515175,-55.51593,-55.225777,-54.819435,-56.27152,-56.628506,-55.69171,-55.552025,-54.77777,-55.095123,-55.919464,-55.468998,-55.48668,-56.035175,-56.40504,-56.95084,-56.99141,-55.667023,-55.701042,-56.140793,-55.85163,-56.94408,-56.119507,-55.40177,-56.703335,-56.72176,-56.349503,-55.534294,-56.275787,-56.83154,-55.639088,-56.265625,-55.918884,-55.424088,-55.36721,-55.24699,-56.289124,-55.2996,-55.232265,-56.649754,-56.297726,-55.59794,-55.98627,-56.30215,-55.423088,-56.32605,-56.46028,-55.184563,-55.64273,-55.500572,-55.785637,-56.018997,-55.783894,-55.919003,-55.603146,-55.941914,-55.670944,-55.826103,-55.94895,-55.190407,-56.122173,-56.391117,-56.275036,-56.739525,-56.063236,-55.47431,-55.611164,-55.781654,-55.094387,-55.557373,-56.423874,-55.60869,-56.453304,-56.40812,-55.33222,-56.627174,-56.167248,-55.423916,-55.528347,-54.913246,-56.142765,-56.780617,-56.15431,-56.2159,-56.18094,-55.737465,-55.384823,-55.577488,-55.56861,-55.80738,-55.523563,-55.137085,-55.89827,-56.312542,-56.676403,-56.3547,-55.809845,-55.832706,-55.79467,-55.666912,-55.313644,-56.190166,-56.299103,-55.431416,-55.84985,-55.947018,-55.55417,-54.989586,-55.48293,-56.229294,-55.40319,-55.64954,-56.548496,-57.07506,-56.853653,-55.460575,-56.236378,-56.8286,-55.563343,-55.80205,-55.696674,-55.308495,-55.896935,-56.00705,-55.55849,-55.77173,-56.57671,-56.061,-55.65622,-55.702015,-55.76024,-56.022953,-55.65763,-56.358692,-55.92999,-54.55272,-55.24278,-55.94302,-55.953747,-55.258038,-54.733826,-55.391277,-56.301636,-55.882214,-55.563976,-56.571243,-56.15885,-56.21352,-56.299595,-55.561672,-55.791496,-55.343063,-55.494602,-55.409462,-55.571503,-56.145294,-54.984325,-55.441513,-56.39099,-56.30704,-56.10436,-56.199265,-56.75523,-56.106216,-55.907913,-55.364235,-55.31714,-56.806282,-56.10383,-55.628,-56.045727,-55.613617,-55.59201,-55.70389,-56.203762,-56.593845,-55.390358,-54.58314,-56.18225,-56.839474,-55.77735,-55.735897,-55.840595,-55.660458,-56.190258,-55.906803,-55.013012,-56.019722,-56.73613,-56.203545,-56.312515,-56.49369,-56.20863,-55.776115,-55.686287,-55.461864,-55.64258,-55.42392,-55.59593,-56.73541,-55.746662,-55.569378,-55.894196,-55.38201,-55.822742,-55.480762,-55.277184,-55.04091,-55.745876,-56.66448,-56.25102,-56.244396,-55.328274,-56.076374,-56.4118,-54.966335,-56.09842,-55.66244,-54.66118,-55.30663,-55.79701,-56.720604,-56.181572,-56.40933,-57.19709,-55.667465,-55.14423,-56.16447,-56.667328,-56.06192,-55.34536,-55.712917,-55.427483,-55.17912,-56.766212,-56.573727,-54.834286,-55.728542,-56.009502,-54.811066,-55.85988,-56.225483,-55.505302,-56.180588,-55.856575,-56.026455,-56.832466,-55.67837,-55.635002,-56.03289,-55.93764,-56.070244,-54.83014,-55.144325,-56.147614,-55.855915,-56.67423,-56.799,-55.7315,-56.06407,-56.866016,-56.180637,-55.77804,-55.736755,-55.52077,-56.44778,-56.25578,-56.003685,-56.25988,-56.004166,-56.686863,-55.59978,-55.045986,-56.29771,-55.60069,-55.579365,-56.672077,-57.303143,-56.482838,-55.19338,-56.420326,-55.981075,-55.091904,-56.378574,-54.956226,-55.172367,-56.933506,-56.42477,-57.554325,-56.820515,-55.651314,-56.86392,-56.508076,-56.574554,-55.84368,-54.739788,-55.8596,-56.351032,-55.9211,-55.751564,-56.618237,-56.645466,-55.813362,-55.659813,-55.39088,-56.100937,-55.66698,-55.489227,-56.78193,-56.228798,-56.8995,-57.030964,-55.460033,-55.841743,-55.777016,-55.391632,-55.308434,-55.009403,-55.731167,-55.965332,-55.933174,-56.442204,-56.62466,-56.781002,-56.377075,-56.109844,-55.949284,-55.24193,-55.41873,-55.743492,-55.721134,-55.47301,-56.350056,-56.53719,-55.013504,-56.76291,-57.08191,-55.4749,-55.61455,-55.244904,-56.368664,-55.567814,-55.19854,-56.472816,-55.206844,-56.13924,-56.269764,-56.05269,-56.61906,-55.211792,-55.505405,-55.20166,-55.940598,-57.197514,-55.744156,-55.86947,-56.201153,-56.151558,-55.750122,-55.212055,-55.84521,-55.852985,-56.739212,-56.813416,-55.563736,-55.730827,-56.131973,-56.03009,-55.22719,-55.264038,-55.878674,-55.48132,-55.021866,-55.456093,-56.579052,-56.474823,-55.850597,-56.330967,-57.173576,-56.85144,-56.5332,-56.8062,-55.42326,-54.854786,-55.027073,-55.149586,-56.20408,-55.78477,-55.95822,-56.991615,-56.73055,-55.590454,-55.04418,-55.562855,-54.929905,-55.330624,-56.162617,-55.881054,-56.451458,-56.163548,-56.2284,-56.91787,-56.51875,-55.81865,-55.346916,-55.23842,-55.28125,-56.144985,-56.297287,-55.93817,-56.266354,-55.94607,-55.69622,-55.276287,-55.62458,-56.2381,-55.35433,-56.302723,-57.57732,-56.833076,-56.282814,-55.704468,-55.76591,-56.33017,-57.073956,-56.741974,-55.313816,-56.59039,-56.43459,-55.639866,-56.318928,-55.20035,-56.26055,-56.119858,-55.329327,-56.52204,-55.649548,-56.244553,-56.09286,-55.75632,-56.643814,-55.55443,-55.92593,-56.157032,-56.016533,-55.66339,-55.416683,-56.786934,-55.27704,-55.47185,-57.168518,-55.79052,-56.60051,-56.5529,-55.183865,-55.67509,-55.14761,-55.54081,-56.255455,-55.9916,-55.849026,-55.471508,-56.333088,-56.491528,-56.005516,-56.07752,-55.503147,-56.065773,-55.770576,-54.998375,-55.642006,-55.618263,-55.909573,-55.805153,-56.501762,-57.55518,-56.146496,-55.903515,-55.958218,-55.7102,-55.94286,-54.821217,-55.68573,-56.938576,-56.11905,-55.474197,-55.89752,-57.26722,-56.133076,-54.835274,-55.631638,-56.06469,-56.83271,-55.9883,-55.260185,-56.24088,-56.375134,-56.114037,-55.746155,-56.650818,-56.99382,-55.455273,-55.601524,-56.211067,-55.734093,-55.929054,-56.128426,-55.932877,-55.989487,-55.996998,-56.538857,-55.815575,-54.629734,-56.415092,-56.635155,-55.183113,-56.336716,-56.694553,-56.004913,-55.711388,-55.624134,-57.127243,-57.351406,-55.94725,-55.351334,-55.272995,-56.13183,-55.961224,-54.946182,-56.036655,-57.18388,-56.813633,-56.799007,-56.6335,-55.977688,-56.50368,-56.341686,-55.26227,-55.230812,-56.055614,-56.624683,-55.92711,-55.990788,-56.072514,-56.19318,-56.867054,-55.480457,-55.406467,-56.194996,-56.42651,-57.442924,-56.380936,-55.792755,-56.320675,-56.12991,-56.054317,-55.21147,-55.784798,-56.57729,-56.42007,-56.705578,-55.62152,-55.43378,-55.86143,-55.62065,-55.739502,-55.28156,-55.706577,-56.01279,-56.291218,-56.16399,-55.600895,-56.85055,-55.861183,-55.72174,-57.09214,-54.86686,-54.707302,-56.316208,-55.769474,-55.464935,-56.458313,-56.869778,-56.29976,-56.739532,-56.170124,-56.001213,-57.075233,-55.878757,-55.823353,-56.678314,-55.864346,-55.907604,-56.370216,-56.01917,-56.189873,-57.135456,-56.301636,-54.965252,-55.76189,-55.956043,-55.310413,-55.334625,-55.56818,-56.224228,-55.999557,-55.759995,-56.757713,-56.455227,-56.591297,-57.119743,-55.377743,-55.93151,-57.221302,-54.940628,-54.835346,-57.03324,-56.56292,-56.613308,-57.504387,-55.826054,-55.68681,-56.786373,-55.578808,-55.108677,-55.660313,-55.987682,-55.851933,-55.95092,-56.347443,-55.962524,-56.647995,-56.426495,-55.832664,-56.33348,-55.833412,-57.265083,-56.756138,-54.99439,-57.107647,-56.11759,-55.482624,-57.038128,-55.23567,-55.076565,-55.66467,-55.108707,-55.71035,-56.554253,-56.936687,-56.578022,-56.453243,-55.81079,-54.748657,-54.68143,-55.694782,-55.5369,-54.646095,-56.345276,-56.52767,-55.264797,-56.008102,-56.503944,-56.028072,-56.133266,-56.353786,-55.085846,-55.325764,-56.149082,-56.42136,-57.12118,-56.30675,-56.474136,-56.290257,-55.292465,-55.35625,-55.065956,-55.42031,-55.761734,-55.995773,-56.04953,-56.246075,-56.70227,-55.70598,-55.65639,-56.11042,-55.66403,-56.164806,-56.077377,-55.424366,-56.18368,-57.034397,-56.439304,-55.339436,-55.507183,-55.987263,-55.589306,-55.252247,-55.149765,-55.551,-55.99375,-55.537792,-55.240643,-55.552067,-56.44664,-56.822903,-55.790977,-56.116726,-56.673996,-55.63386,-55.61795,-55.074207,-54.423523,-56.16897,-56.593204,-55.94665,-56.420963,-55.09765,-54.721424,-57.24683,-57.250732,-55.84841,-55.941833,-56.048763,-55.738163,-55.861954,-56.7084,-56.31433,-56.306923,-56.321716,-55.368443,-56.393112,-55.92888,-55.94454,-57.408493,-56.363235,-56.707283,-56.429066,-55.321133,-55.938484,-56.05037,-55.80261,-55.34191,-55.666916,-54.910084,-54.874542,-56.54835,-56.239754,-56.617245,-56.71336,-56.15589,-56.13812,-55.61658,-55.59413,-55.808884,-56.231247,-56.06538,-56.15749,-56.022602,-56.03544,-56.835213,-56.012432,-55.908432,-55.90511,-55.82248,-55.985744,-55.581463,-56.35531,-56.21915,-56.483635,-56.133137,-55.53389,-57.243317,-56.379345,-55.30194,-55.67281,-55.375134,-55.389362,-55.78443,-56.823605,-56.785442,-56.736607,-56.49451,-56.205486,-56.716778,-55.212624,-55.10779,-55.99615,-55.469193,-55.227654,-55.432533,-56.62939,-56.11443,-56.196556,-56.95884,-55.210373,-55.173775,-55.726063,-55.75335,-55.707775,-56.104664,-56.95383,-55.6131,-56.41111,-56.86428,-54.515846,-54.446205,-55.422333,-56.673843,-56.270782,-55.76747,-56.508648,-55.69166,-56.163765,-56.0248,-55.265354,-56.35625,-56.7683,-56.10858,-55.03293,-56.001488,-57.001682,-56.37897,-56.40232,-55.837086,-55.74555,-55.791546,-56.001648,-56.52792,-55.517372,-55.853302,-56.28563,-55.962868,-56.79294,-56.385326,-55.85165,-55.659603,-55.829346,-56.8549,-55.912903,-55.33468,-56.2026,-56.359924,-55.966488,-54.883442,-55.33384,-56.228107,-55.979027,-56.517944,-55.924416,-54.749958,-54.97215,-55.367302,-55.489174,-55.59807,-56.40272,-56.68067,-56.142784,-56.268394,-56.417236,-56.370552,-56.058353,-55.54247,-55.391285,-55.618206,-55.345146,-54.931316,-55.923534,-56.02528,-55.89902,-57.011253,-56.274944,-55.294952,-55.30777,-55.657085,-56.37098,-56.17851,-56.261055,-56.155952,-55.616,-55.981205,-56.393646,-56.39065,-55.60822,-55.849937,-56.752167,-55.8264,-56.45572,-57.498867,-56.04032,-56.123573,-56.61415,-55.825912,-55.698364,-55.402344,-55.785347,-55.54851,-54.697163,-56.197784,-56.50321,-55.906082,-56.50981,-56.123356,-55.47627,-54.8887,-56.001957,-56.547237,-55.15835,-56.720085,-56.50144,-54.84537,-56.547386,-56.754276,-56.802822,-56.559513,-54.85999,-55.7911,-55.64293,-54.987286,-56.164684,-55.994076,-56.098385,-56.46089,-56.47636,-56.238007,-56.033543,-56.123104,-55.25108,-55.9352,-56.38973,-56.458344,-57.499485,-55.672386,-55.459305,-56.58115,-55.45031,-56.50371,-56.26455,-55.10268,-57.20134,-57.264256,-56.490242,-56.369106,-55.63539,-57.120037,-57.035683,-55.687702,-56.227726,-55.729458,-55.272045,-55.415794,-55.26168,-55.66574,-56.6485,-56.75502,-55.87718,-56.017822,-56.394997,-56.46903,-55.93319,-55.565956,-56.153633,-56.432278,-57.44491,-56.872192,-55.4805,-57.034634,-56.770905,-55.438572,-57.35179,-57.079292,-55.045147,-55.882957,-55.995598,-55.67386,-56.13993,-55.867508,-56.3312,-56.4956,-56.34575,-56.029217,-55.59545,-56.174057,-55.682156,-55.91447,-56.991653,-56.460598,-56.391537,-55.91362,-55.63366,-56.5704,-56.389183,-55.85705,-55.44548,-55.77225,-56.28955,-56.723576,-57.128933,-55.48308,-55.839386,-56.684315,-55.16294,-55.551247,-55.72212,-55.830765,-56.360157,-55.679955,-55.33652,-55.380024,-56.383995,-56.830746,-56.467262,-56.678993,-56.71381,-55.684692,-55.45704,-57.04687,-56.15337,-55.040504,-55.895103,-56.201725,-56.129795,-55.10663,-55.697323,-57.013092,-56.17759,-55.799313,-56.52386,-56.270123,-55.47309,-56.475506,-56.686714,-56.37284,-56.869408,-55.337406,-55.30027,-56.2044,-55.616543,-56.55213,-57.10384,-56.78342,-56.975563,-56.82794,-56.604942,-56.711887,-56.875195,-55.542633,-54.78986,-56.13651,-56.658585,-57.043224,-56.268322,-55.37531,-57.097042,-56.111492,-55.000233,-56.569206,-55.87112,-55.390537,-55.11803,-54.98793,-56.572674,-55.57872,-55.21894,-57.163525,-56.701,-56.180176,-55.649742,-55.069473,-55.969643,-55.369278,-55.984562,-56.349277,-54.87313,-56.039562,-56.616592,-56.988808,-56.516396,-54.35315,-54.978474,-55.349342,-55.08379,-55.457474,-55.513,-55.873657,-55.926025,-55.92135,-56.391926,-56.75133,-55.30686,-54.477234,-55.39171,-55.74467,-56.545944,-56.76894,-56.578365,-56.81305,-55.54357,-55.17763,-56.969395,-56.821125,-55.640957,-55.883587,-55.169285,-54.5945,-55.72712,-56.122818,-55.71976,-56.25366,-56.335823,-55.64783,-55.93915,-56.210266,-56.160507,-56.30581,-56.54788,-55.638638,-55.239616,-56.837296,-56.290543,-55.898098,-56.513233,-55.843388,-55.603333,-54.817986,-55.47002,-56.592518,-56.03315,-56.529682,-56.76702,-55.945602,-55.778233,-56.329826,-56.1278,-55.6175,-55.853508,-55.758358,-56.025166,-56.77606,-56.64083,-56.211445,-56.353573,-56.45802,-56.340927,-56.2133,-56.080265,-55.86574,-55.741486,-56.244377,-55.573795,-55.082684,-56.039474,-55.21451,-55.645348,-57.095623,-55.98113,-55.883354,-56.123356,-55.867336,-56.111267,-55.24773,-55.448437,-56.16975,-55.795315,-55.95923,-55.80288,-55.555424,-55.988224,-55.996784,-55.964523,-56.31515
-56.22035,-56.07137,-56.76455,-56.568295,-55.432804,-55.372143,-55.12609,-55.48318,-56.662132,-56.575676,-56.711075,-56.035275,-55.57651,-56.7838,-56.05546,-55.95596,-55.949852,-54.168312,-55.527393,-56.270897,-55.538364,-57.01759,-56.304977,-55.502174,-56.198277,-55.315006,-55.47701,-56.240166,-56.232937,-56.1994,-56.03303,-56.33002,-56.344772,-56.080315,-56.432777,-56.27978,-55.74755,-56.10439,-55.938923,-55.634983,-55.971405,-55.672707,-55.715607,-55.843716,-55.92087,-56.1442,-55.96887,-56.057934,-55.79354,-55.63288,-55.54689,-55.59365,-56.575333,-56.56844,-56.03813,-56.738464,-56.863182,-55.49535,-55.189518,-56.384438,-56.805237,-55.54176,-55.034447,-56.25836,-56.026997,-56.484287,-57.49849,-56.23796,-56.60146,-57.460003,-56.93401,-56.25831,-55.388027,-55.56982,-55.827316,-55.74095,-55.550636,-56.13658,-57.07379,-56.08977,-55.493114,-54.659897,-54.625374,-56.63315,-56.020405,-56.012905,-56.3247,-55.28738,-56.444496,-56.1879,-56.149113,-57.164158,-56.702877,-56.521244,-55.518093,-55.427757,-55.851933,-55.742714,-55.92632,-55.528988,-56.093,-56.52548,-56.37918,-56.019005,-55.503063,-55.73342,-56.070053,-56.299732,-56.43277,-56.684853,-55.765747,-55.530834,-56.656315,-56.35952,-55.86429,-55.739246,-56.26192,-55.709652,-55.00887,-56.367954,-56.180397,-56.314384,-56.605488,-55.108006,-55.766182,-55.724728,-54.465294,-56.08005,-55.948902,-54.444813,-55.902122,-56.548862,-55.865864,-55.95822,-56.2014,-55.38054,-55.184563,-56.487274,-55.9712,-56.353115,-56.62487,-55.8078,-57.06769,-55.900906,-55.21715,-56.40695,-55.748264,-56.213627,-56.534824,-56.004772,-55.48672,-54.95608,-55.52886,-55.888836,-56.107666,-56.42263,-55.94306,-55.755722,-56.59682,-56.47324,-55.747322,-56.27512,-55.816135,-55.52849,-56.740192,-56.437687,-56.150005,-56.05526,-55.794987,-56.37248,-54.88554,-54.86615,-56.486305,-55.800514,-56.749012,-56.703754,-55.261494,-55.867832,-55.619953,-55.967945,-56.318974,-55.618618,-56.043987,-55.572205,-55.022118,-55.748096,-55.591446,-55.757767,-56.337563,-55.975136,-56.663857,-56.547333,-55.39333,-55.93915,-56.085133,-56.19706,-56.16948,-55.39955,-55.909447,-56.181614,-56.287785,-56.778816,-56.131763,-55.990177,-56.23762,-55.523968,-56.236313,-57.069515,-56.16935,-56.089542,-56.33014,-55.61311,-55.66308,-56.555447,-55.83814,-55.72643,-56.24297,-54.853935,-55.382,-56.240536,-55.822433,-55.771866,-55.807552,-56.374397,-55.94594,-55.88535,-55.604733,-55.330986,-56.27827,-56.106388,-55.948723,-55.552723,-56.21065,-56.134754,-54.869144,-56.579353,-56.31322,-55.654655,-56.573112,-56.118008,-56.40022,-55.83279,-56.38843,-57.35605,-55.916107,-55.86956,-56.51444,-55.95626,-55.18728,-56.014835,-56.15401,-55.339836,-56.480186,-56.121307,-56.0324,-57.291233,-56.184063,-55.74404,-56.348156,-56.090427,-56.808693,-57.623577,-56.140686,-55.202812,-56.209824,-55.31838,-54.76061,-56.384148,-56.082436,-55.09719,-55.50197,-55.950123,-55.922497,-55.993107,-56.5838,-56.35687,-56.277756,-56.35578,-55.275806,-55.779976,-55.916203,-54.735397,-56.107075,-57.104397,-56.42557,-56.509605,-56.472206,-56.326534,-56.046005,-54.95192,-55.20426,-56.410854,-55.564857,-55.45251,-56.460396,-56.418995,-56.49246,-56.49154,-57.060734,-55.838745,-54.81076,-56.44675,-55.88891,-55.938698,-56.166573,-55.86135,-56.919106,-55.439125,-55.642536,-56.55688,-55.278038,-56.463963,-56.295162,-55.13799,-56.23057,-55.656075,-55.056007,-56.054058,-55.786446,-55.73824,-56.40125,-55.93962,-56.032104,-56.30807,-55.29374,-55.851288,-57.55851,-56.706825,-55.526546,-56.323586,-56.832016,-56.499615,-56.08079,-55.920334,-56.051544,-55.771942,-55.31171,-55.86613,-56.693413,-55.578922,-54.937107,-56.27845,-56.286606,-56.11655,-56.047085,-55.617973,-56.070835,-55.58182,-56.08101,-56.745674,-55.82752,-55.852688,-56.133442,-56.13851,-55.56307,-56.176464,-56.8051,-55.569168,-56.16332,-56.42257,-55.806583,-56.471786,-56.228416,-55.78117,-55.730167,-55.325676,-54.870815,-55.188583,-56.069008,-55.50299,-55.243958,-56.553696,-56.73556,-56.132282,-56.049774,-56.265667,-56.012516,-55.454437,-55.854877,-55.762646,-55.982105,-56.82465,-55.85507,-56.297153,-56.836582,-55.3453,-56.211018,-56.093494,-54.54376,-55.53743,-55.822075,-55.4758,-55.444138,-55.517143,-56.64553,-56.39738,-55.49616,-55.58316,-55.664326,-55.986862,-56.01984,-55.671005,-55.41729,-55.72432,-56.563293,-56.676384,-55.952957,-55.105083,-55.622482,-56.316753,-55.992912,-56.47142,-55.966537,-55.618687,-57.31361,-57.354424,-56.27694,-55.77716,-55.74123,-55.81211,-55.542633,-55.824375,-55.273224,-55.119873,-55.717533,-55.695175,-56.579903,-56.037502,-55.757526,-56.45889,-55.375786,-55.564476,-55.962757,-55.955334,-56.210682,-56.577698,-56.545822,-55.052326,-56.24458,-56.584763,-56.016018,-57.068268,-55.53499,-56.024693,-56.217644,-55.64643,-56.489826,-54.90408,-56.221283,-56.60865,-55.182823,-56.131203,-55.35015,-55.843197,-55.744736,-54.82702,-56.07026,-55.901726,-55.909515,-56.6948,-56.257313,-55.01462,-55.22239,-55.95188,-55.80864,-56.449223,-55.905594,-55.694332,-56.00184,-55.373264,-56.43767,-56.646683,-56.328896,-56.962753,-56.285587,-55.830074,-55.963593,-55.781784,-55.67327,-55.31708,-55.429333,-56.26296,-55.871998,-54.785038,-55.427162,-56.642654,-56.313274,-55.884556,-56.145596,-55.42624,-55.84175,-56.724842,-55.37767,-56.08673,-56.97832,-55.10467,-55.12162,-55.549927,-55.446823,-56.381603,-55.952347,-55.944614,-56.23472,-55.591347,-56.939335,-56.743736,-55.72266,-56.511158,-55.251247,-55.83931,-57.120453,-56.69942,-57.48551,-55.840607,-55.489223,-56.462997,-55.133446,-55.647755,-55.65832,-56.057842,-56.653732,-54.96488,-55.165012,-55.650303,-55.97867,-56.459736,-56.238804,-56.131577,-54.7187,-54.944096,-56.22807,-56.108643,-55.337376,-54.797787,-56.14977,-56.027973,-55.467964,-56.31084,-56.17079,-55.7682,-55.027718,-55.87365,-56.685913,-55.78762,-56.214024,-56.26027,-56.046295,-56.698368,-56.36628,-55.805843,-56.339264,-56.564655,-55.484966,-54.925877,-55.302032,-55.662086,-56.242023,-55.99155,-55.691463,-56.857803,-57.090652,-56.276093,-55.45386,-55.576683,-56.532337,-55.688095,-55.73206,-56.72568,-56.201122,-55.619934,-55.219395,-55.8585,-56.008167,-55.40189,-55.45948,-55.08037,-55.70548,-56.454834,-56.176132,-55.67836,-55.56827,-56.249893,-55.55017,-55.666573,-56.00406,-55.011414,-56.227036,-55.772312,-55.006435,-56.613388,-56.3389,-56.226982,-56.34715,-56.199577,-56.67641,-55.566723,-54.95416,-56.072918,-55.331226,-55.02638,-56.75393,-55.97805,-55.652275,-56.20061,-55.94343,-56.930813,-56.195,-55.579502,-55.670795,-55.842896,-56.68195,-56.021687,-56.214985,-55.73496,-55.846024,-56.9823,-55.78214,-55.647984,-55.780876,-56.178886,-56.12049,-55.48959,-56.437614,-56.119514,-56.58385,-56.77794,-55.781197,-55.69834,-55.62522,-55.98782,-54.596344,-54.830845,-56.712376,-55.617844,-55.3045,-56.072674,-56.05651,-56.433517,-57.210026,-55.96808,-54.97389,-55.79833,-55.279343,-55.807262,-56.297832,-55.70665,-55.23207,-54.79739,-55.368523,-55.116028,-55.65227,-55.835274,-55.337803,-56.05568,-55.85745,-56.094578,-55.842896,-55.241333,-55.99407,-56.908527,-56.47535,-55.53924,-56.298157,-55.614063,-55.027557,-56.05527,-56.162743,-56.545483,-56.245476,-55.985397,-55.794174,-55.74538,-56.662735,-56.09293,-56.037098,-56.24685,-56.06663,-56.90815,-56.454063,-56.39517,-56.19621,-55.25749,-56.41135,-56.161377,-55.315266,-56.722816,-56.898468,-55.881836,-55.924026,-56.396267,-56.27456,-55.947937,-55.970634,-56.230488,-55.961708,-55.23476,-55.775517,-56.676125,-56.68468,-56.506855,-56.145462,-56.173973,-55.77526,-55.22456,-55.891956,-55.712715,-55.47035,-56.373184,-56.508472,-55.7442,-55.573196,-56.198315,-55.85383,-56.05618,-56.465004,-55.605022,-55.87745,-55.680202,-55.40325,-56.000046,-55.928635,-56.11741,-56.2052,-56.520638,-56.661766,-56.111866,-55.48822,-55.54362,-56.09033,-55.837322,-56.24295,-55.97943,-55.47919,-56.45543,-56.669987,-56.146866,-55.178352,-55.078575,-55.445667,-55.561356,-55.6818,-55.573425,-56.640793,-56.44269,-55.95075,-56.18427,-55.978416,-56.448624,-55.65756,-55.70769,-56.031673,-55.912437,-56.797775,-55.838448,-55.766396,-55.714645,-55.07967,-56.11183,-55.536205,-55.30044,-56.13291,-55.693085,-55.50137,-56.447224,-57.143654,-56.315,-55.7817,-56.060287,-55.903595,-56.40606,-56.398926,-55.01415,-55.81767,-56.86954,-56.02758,-56.78816,-56.972717,-55.842506,-56.12556,-56.075577,-55.723637,-55.976883,-55.772873,-56.091843,-56.85365,-56.060787,-55.57396,-55.993015,-55.480667,-55.448605,-55.92025,-55.838284,-55.80184,-55.792465,-55.5283,-56.40958,-57.841835,-56.792915,-56.173084,-57.02826,-55.80271,-55.39604,-56.156536,-55.600178,-56.088135,-56.34517,-55.43679,-55.851887,-56.087364,-55.520718,-56.023262,-56.585114,-55.78555,-55.698975,-55.84832,-54.9778,-55.622696,-55.46343,-55.33232,-56.831318,-56.073746,-56.157005,-55.96137,-54.624752,-55.955547,-55.95105,-55.67512,-56.46948,-55.760326,-55.281742,-55.50319,-55.866486,-55.467278,-55.59952,-56.555607,-56.317543,-56.16966,-55.79922,-55.608894,-56.53626,-56.69759,-56.209515,-55.965706,-56.266438,-56.59376,-56.419205,-55.965584,-55.288326,-55.214325,-55.622505,-55.881603,-55.90175,-55.86098,-56.178703,-56.557545,-56.73685,-56.079327,-54.863625,-54.77428,-55.592186,-55.374454,-54.64518,-55.488865,-56.23621,-55.882854,-56.20317,-56.392456,-55.938,-55.695934,-55.603012,-56.011726,-56.177486,-55.3449,-54.882057,-55.286438,-56.029797,-55.92599,-54.873814,-55.239143,-55.76432,-55.05687,-55.777256,-56.061626,-54.855022,-56.18842,-57.219852,-55.326187,-55.588306,-57.165028,-56.720676,-56.36058,-56.038914,-55.664494,-55.811604,-55.525974,-55.986202,-56.531723,-55.865322,-55.63911,-55.658203,-55.241245,-55.51551,-55.50177,-55.70819,-56.905567,-56.303585,-55.893684,-56.45582,-55.590202,-55.1188,-55.207355,-55.927658,-56.440563,-55.84226,-56.31274,-56.14942,-56.00286,-57.26128,-56.819874,-56.23767,-55.88793,-54.699432,-55.187313,-56.106075,-55.735214,-55.76019,-56.418167,-56.60494,-57.16016,-56.62175,-55.162285,-56.023773,-56.045887,-55.40893,-55.874676,-55.326717,-55.836468,-56.78252,-55.881603,-55.60339,-56.527626,-55.40099,-54.618435,-55.27598,-54.84489,-55.94082,-55.776577,-54.92775,-56.036263,-55.45021,-55.391167,-55.7813,-55.741764,-55.953007,-55.63589,-56.12979,-56.058533,-55.470848,-55.440727,-56.011497,-56.991776,-56.621315,-56.38507,-56.82718,-56.232334,-55.86562,-55.710304,-55.64147,-55.68575,-54.369682,-55.27359,-57.19072,-55.834274,-55.799644,-56.72194,-56.098934,-55.4908,-55.271347,-56.006847,-55.972412,-56.173275,-56.997917,-56.39429,-56.01212,-55.708157,-55.537334,-56.259304,-56.37309,-55.706345,-55.865,-56.184803,-55.249847,-55.265858,-56.396927,-56.953793,-56.582035,-55.6663,-55.387985,-55.236626,-55.53541,-55.274746,-54.654728,-56.03826,-55.904118,-54.91253,-55.959118,-56.00908,-55.62725,-56.3831,-56.591614,-55.508724,-54.961376,-55.122227,-54.980354,-56.528446,-57.487545,-56.343777,-56.38923,-55.76267,-55.30676,-56.549706,-56.319565,-56.309227,-56.852776,-56.73543,-56.146847,-55.8758,-56.641644,-56.04923,-56.21008,-56.296497,-55.559196,-56.341534,-55.86939,-56.535175,-56.80027,-55.99359,-56.98841,-55.778748,-55.664383,-56.466286,-55.410366,-56.06424,-56.419212,-56.09673,-56.10733,-55.770756,-55.66415,-56.132046,-56.63102,-55.96902,-56.248795,-55.92339,-55.039444,-56.424282,-55.68625,-55.23199,-56.382824,-55.787537,-56.24193,-56.47384,-56.067974,-55.489353,-54.978016,-55.763103,-55.59948,-55.895203,-56.191727,-55.800896,-56.03448,-55.90782,-56.56944,-56.771137,-56.706158,-56.6973,-55.599285,-55.59646,-55.5952,-55.895027,-56.414318,-55.21214,-55.212437,-56.503937,-56.87859,-56.1385,-55.304913,-56.14747,-56.708183,-55.723797,-56.010963,-56.574104,-55.818726,-56.05377,-56.581795,-55.796806,-55.88426,-56.64151,-55.697735,-55.817272,-56.79907,-55.77112,-55.52666,-55.939487,-56.42413,-56.45673,-56.02716,-57.548508,-56.762974,-54.89563,-55.628727,-56.32788,-56.80934,-56.151344,-55.921112,-56.50489,-56.491356,-56.763237,-56.132797,-55.560524,-55.05672,-55.27717,-55.777054,-55.163498,-55.85555,-55.76984,-55.961517,-56.457333,-54.959797,-55.661255,-56.460007,-55.56286,-55.575382,-56.13054,-56.099804,-55.146515,-55.483025,-56.297382,-55.849335,-55.865017,-56.59329,-56.694168,-56.272583,-55.800873,-55.947678,-56.560253,-56.271946,-56.45153,-56.022,-55.559914,-56.34179,-55.946114,-56.4682,-55.932266,-55.07287,-56.023563,-55.263184,-56.4307,-57.407177,-55.729332,-56.06438,-56.29641,-55.788055,-55.575287,-55.158447,-56.042183,-56.06735,-54.81835,-55.733257,-56.936882,-56.504147,-55.92528,-55.863506,-55.696922,-55.59262,-56.02914,-55.34458,-55.38716,-56.076797,-55.41443,-56.206226,-56.71851,-55.84467,-55.823586,-56.324585,-56.449314,-55.58992,-55.446415,-56.07669,-56.63253,-56.88115,-55.656208,-55.55965,-56.495308,-56.017544,-56.043907,-56.042603,-55.82336,-55.958946,-55.162014,-55.63884
-56.727383,-56.207226,-56.15637,-56.830563,-56.421577,-55.20029,-55.162235,-55.525673,-55.152786,-55.32865,-55.5923,-56.263588,-57.15289,-56.410652,-55.240974,-54.79775,-55.59228,-56.25974,-54.961735,-55.34114,-56.72591,-55.89469,-55.95515,-56.36661,-55.880596,-56.185043,-56.209583,-56.008335,-55.415375,-54.80378,-55.774887,-56.21116,-55.81899,-56.32045,-55.725,-54.980705,-56.294937,-56.285942,-55.696075,-55.81062,-55.18164,-55.994453,-56.466423,-56.014854,-56.120857,-56.377373,-56.643726,-55.295986,-55.396587,-56.610756,-56.109425,-55.6188,-54.9933,-55.257404,-55.142715,-54.941418,-56.686234,-56.621,-55.35105,-55.60257,-55.598656,-55.15128,-55.766735,-56.513138,-56.500473,-56.013546,-55.761578,-56.372845,-55.776733,-55.236614,-56.51656,-56.09048,-55.051525,-55.873383,-56.03914,-55.672607,-56.033062,-56.461018,-57.05428,-56.599033,-55.763943,-55.84065,-55.466476,-55.71208,-56.152008,-56.0597,-56.49104,-55.919403,-55.7234,-56.938828,-56.58698,-55.618504,-55.92718,-55.935017,-56.297005,-56.58753,-55.3738,-55.97808,-56.986557,-56.06856,-55.83527,-55.899433,-55.90808,-56.399708,-57.07776,-56.63563,-55.24486,-55.01714,-55.096767,-55.75525,-56.5777,-56.05316,-55.70304,-55.42362,-56.054237,-57.189167,-56.001312,-55.72233,-56.58378,-56.06315,-56.599228,-56.54274,-55.83167,-56.484165,-55.541534,-54.56155,-55.75039,-55.83817,-55.224712,-56.56421,-56.78443,-55.55556,-56.353466,-56.443275,-55.77727,-56.360443,-56.3301,-56.459732,-56.04689,-55.374424,-56.224274,-56.69772,-56.74494,-56.477806,-55.57454,-55.49603,-56.43272,-56.41698,-55.25792,-55.359573,-56.248043,-56.340244,-55.557117,-55.507103,-56.501663,-55.900387,-55.35469,-55.802162,-55.10202,-55.277107,-55.863903,-55.101444,-55.102486,-55.207798,-55.498295,-56.510994,-56.339745,-55.958637,-55.48925,-55.319576,-55.550034,-55.230747,-55.93384,-56.446907,-56.470337,-56.631004,-56.277584,-56.289555,-56.325974,-55.848,-55.293743,-55.664833,-55.503475,-55.41144,-56.239494,-55.408806,-55.485428,-56.28313,-56.201973,-56.398514,-56.617664,-56.4156,-54.90648,-55.541958,-56.523438,-56.12992,-56.72382,-55.738792,-55.6806,-55.953583,-56.140934,-56.724392,-54.923058,-55.451157,-55.841396,-54.78453,-56.11449,-56.35467,-55.9415,-55.994442,-56.22637,-56.54152,-56.57418,-56.69096,-55.48098,-54.999294,-56.003334,-56.008575,-55.344494,-54.89978,-55.706688,-56.177822,-55.128723,-55.458717,-56.20246,-55.56819,-55.516216,-55.854656,-55.500004,-55.980083,-56.69623,-55.81735,-55.837296,-56.56697,-55.120277,-54.658325,-56.455887,-56.07487,-55.161713,-56.11214,-56.050777,-56.28033,-56.02648,-55.85819,-57.175663,-55.36127,-55.10159,-56.143673,-55.02871,-55.981308,-55.53641,-55.776283,-57.072723,-55.802284,-56.08455,-56.39612,-56.38062,-56.03115,-54.81054,-55.112152,-55.500034,-55.7201,-55.628345,-56.54621,-57.217903,-55.857327,-55.657578,-54.97401,-55.359844,-56.90345,-56.10338,-56.16021,-55.886803,-55.001175,-55.923565,-56.57205,-55.76476,-54.914288,-56.589798,-57.283375,-55.10706,-54.89181,-55.484333,-55.777077,-56.50893,-55.933014,-56.47278,-56.837223,-55.380108,-56.178165,-56.437695,-55.47094,-55.730713,-55.928562,-56.262424,-55.42601,-55.537437,-56.877003,-56.28033,-56.10108,-56.267002,-55.35865,-55.494034,-56.262486,-55.654797,-55.824265,-56.69084,-56.29026,-55.816204,-55.63384,-55.934795,-55.920517,-56.040752,-55.835632,-54.71433,-54.827633,-55.380394,-56.324085,-56.34763,-56.20054,-57.453438,-56.757183,-56.142403,-56.729137,-56.127167,-55.619156,-56.674065,-56.96857,-56.015915,-56.445286,-55.805984,-55.617977,-57.17528,-56.572865,-55.62653,-55.391003,-56.141407,-57.15559,-56.372337,-56.161003,-56.733006,-55.802776,-55.371307,-56.6738,-55.99645,-55.113857,-56.08907,-55.779156,-55.7998,-56.292873,-55.82153,-56.057655,-56.17949,-55.539066,-55.78537,-56.362667,-55.50882,-55.43139,-56.664753,-55.436325,-54.570473,-56.54578,-56.162838,-55.243652,-56.797188,-56.896446,-56.3441,-55.71994,-55.026634,-56.47353,-56.90824,-56.040665,-56.163296,-56.741596,-56.54223,-55.532,-56.510178,-56.697685,-55.79809,-56.26438,-55.581635,-55.678432,-55.990303,-56.0297,-56.72681,-56.22717,-55.80247,-55.29565,-55.682045,-55.94532,-54.824852,-54.816452,-55.54586,-57.014362,-56.765842,-55.080364,-55.54398,-55.874306,-55.68058,-55.977684,-55.923004,-55.6781,-55.885345,-56.57131,-56.006546,-55.343437,-55.88114,-55.85677,-56.357826,-56.831642,-55.842648,-55.289436,-55.462776,-56.01397,-55.81616,-55.183033,-56.08899,-56.917908,-57.18237,-57.15149,-56.051674,-55.543903,-55.696877,-55.57845,-55.76114,-56.150524,-56.714348,-56.166523,-55.480747,-56.143173,-55.98141,-56.126156,-55.95299,-55.397038,-56.19431,-55.8525,-56.03758,-55.99687,-55.40862,-56.71425,-56.77825,-56.390945,-56.35629,-55.931538,-55.64472,-55.598225,-56.672283,-56.42345,-55.76467,-56.67634,-56.335537,-55.599735,-55.975376,-55.677322,-55.921627,-56.17599,-55.035175,-56.0452,-56.14848,-55.532185,-57.427567,-56.04857,-55.37802,-56.793446,-55.642017,-55.597744,-55.44958,-55.45651,-55.983154,-55.196,-55.617622,-56.086655,-56.252808,-55.80922,-54.85645,-55.29105,-54.93438,-54.649204,-55.369377,-55.355244,-55.52695,-55.89971,-55.967003,-55.780106,-55.389763,-55.1868,-55.22908,-55.77056,-55.95346,-55.75519,-56.379498,-56.806217,-56.065662,-54.998573,-55.277283,-56.033485,-55.636234,-55.861835,-56.00489,-55.32591,-55.948772,-56.501106,-55.579468,-55.43274,-56.172684,-55.41948,-54.988605,-55.644173,-55.378963,-55.34586,-55.393135,-55.32228,-56.115562,-57.129,-56.721485,-55.87422,-56.278435,-55.79027,-55.929264,-56.005856,-54.824554,-55.542015,-55.325302,-55.168774,-56.371525,-56.311268,-56.078285,-56.019398,-56.748726,-56.842506,-56.00235,-55.109364,-54.9827,-56.643864,-55.86189,-54.967163,-56.61311,-56.46515,-55.746265,-56.005753,-56.393635,-55.960533,-55.450314,-55.88756,-55.05752,-54.99995,-55.813763,-55.40256,-56.158016,-56.07748,-55.506214,-56.350056,-55.847244,-55.40999,-56.168667,-56.75167,-56.209007,-55.376965,-56.15676,-56.322624,-55.377117,-55.83891,-56.892117,-56.617714,-55.312534,-55.01844,-56.37552,-56.815273,-56.113953,-56.26093,-56.180885,-55.817955,-56.020588,-55.79643,-55.625103,-55.558926,-54.7932,-55.223766,-56.18622,-56.27651,-56.867897,-56.623222,-56.34193,-55.615395,-55.21932,-57.154663,-55.799236,-54.647945,-55.633583,-55.33962,-56.554333,-55.956467,-55.709423,-56.556847,-55.571976,-56.331627,-56.379757,-55.481686,-54.65835,-54.89596,-56.393177,-55.836773,-56.405468,-56.52139,-55.431057,-56.015903,-55.0467,-55.30311,-56.72303,-55.889004,-55.90666,-55.74944,-55.483116,-56.344044,-56.075554,-56.24029,-56.422306,-55.274666,-55.047043,-55.13846,-54.7772,-55.67444,-56.833904,-56.36032,-56.2428,-56.71355,-56.198116,-56.427307,-56.29275,-55.20649,-55.769394,-56.02214,-56.05721,-57.108128,-56.09363,-55.286476,-56.466393,-56.16335,-55.527153,-55.442387,-55.45943,-55.936882,-55.064796,-54.862297,-56.041874,-55.526592,-54.924458,-56.17654,-57.07356,-56.20732,-55.414284,-55.47996,-55.262463,-54.934776,-56.20465,-56.777206,-55.419197,-55.903347,-56.343796,-55.891968,-56.057644,-56.302513,-56.235054,-55.24189,-56.30944,-56.46483,-55.45297,-56.42372,-55.30441,-55.942616,-57.14806,-55.561035,-55.34318,-55.306732,-56.056194,-55.584145,-54.87311,-56.549385,-56.382057,-55.991806,-56.15252,-56.61036,-56.805088,-55.926285,-55.93162,-55.522785,-55.679966,-56.361248,-56.0829,-55.74122,-55.513035,-55.475372,-55.918015,-56.137573,-55.21585,-56.11124,-56.450607,-54.92167,-56.14436,-56.254963,-55.681915,-56.71341,-56.321007,-56.025295,-55.42139,-55.09455,-55.85452,-55.701935,-55.82173,-55.58872,-55.596725,-56.630383,-55.97958,-55.964146,-57.388065,-56.469887,-55.268806,-56.0448,-55.20173,-54.088406,-55.542583,-55.701954,-55.992054,-56.8486,-55.440163,-55.990623,-57.102516,-56.46433,-55.941624,-55.629993,-56.71124,-56.339294,-55.502052,-56.355415,-56.180557,-56.51171,-56.031204,-55.711857,-56.309326,-54.902317,-55.739166,-56.584164,-56.03656,-56.576603,-55.6974,-56.396313,-56.56052,-55.220245,-55.736843,-54.779182,-54.839443,-56.37143,-56.61385,-57.29672,-56.72882,-55.82549,-56.0965,-55.904747,-55.954918,-56.332993,-56.547222,-55.687805,-55.26792,-56.856182,-56.741222,-56.069942,-56.644753,-55.748775,-55.27403,-55.913094,-55.84224,-56.028328,-56.13631,-55.51669,-55.153954,-55.87918,-56.330593,-55.57535,-55.97518,-56.428375,-56.704586,-57.29191,-55.737423,-55.563175,-55.956223,-55.229042,-56.38795,-56.076866,-55.687424,-56.17817,-55.18619,-56.0009,-56.30746,-55.242607,-55.71575,-55.62488,-55.528282,-55.571568,-55.807556,-56.86699,-55.62543,-55.018734,-56.114857,-55.484116,-55.5671,-55.89365,-55.763985,-56.23794,-55.777004,-55.58549,-56.22852,-56.073162,-55.678474,-56.519413,-56.621414,-55.261517,-55.46011,-55.551086,-55.45587,-56.75192,-56.07568,-55.76421,-56.259975,-55.017475,-55.887035,-56.099537,-55.182335,-56.012836,-55.55986,-56.0478,-56.297054,-55.639534,-56.173317,-55.423523,-55.922752,-55.68938,-54.682053,-56.06271,-55.079258,-55.10456,-56.681236,-55.36572,-55.172447,-56.106712,-56.11736,-55.590683,-55.881817,-56.111176,-54.761845,-55.523598,-55.920345,-55.232357,-56.61688,-56.188927,-55.92895,-56.311443,-55.10302,-55.679703,-55.561527,-55.334396,-56.769375,-56.139862,-55.723648,-55.87769,-55.695007,-56.335896,-55.640106,-55.867455,-56.789005,-55.722763,-55.20321,-54.981293,-55.30563,-55.641994,-55.228737,-56.088154,-56.415424,-56.079227,-55.51346,-55.50839,-56.047695,-55.151844,-55.760746,-55.66559,-54.828987,-56.283134,-55.64517,-54.93987,-55.62868,-55.595394,-56.303593,-56.294506,-55.66693,-56.033493,-56.11551,-55.731655,-56.026627,-56.327236,-55.992702,-55.8471,-55.488888,-54.807533,-55.74215,-56.482887,-54.984207,-55.50541,-57.016373,-56.232315,-56.342163,-57.327427,-57.040874,-56.009148,-55.841274,-56.310425,-55.716633,-54.81016,-55.009743,-55.779892,-55.21646,-55.72643,-57.101875,-55.67885,-55.981133,-56.769325,-54.88435,-54.830975,-55.71276,-55.867916,-55.70249,-56.12875,-56.459545,-55.449112,-55.96675,-56.75385,-55.83278,-55.267185,-55.760715,-55.568024,-55.76739,-57.270966,-56.802116,-56.331093,-56.780766,-56.457867,-56.029716,-55.203533,-55.324646,-55.88902,-55.868443,-55.01142,-55.126003,-56.48693,-56.118378,-56.38371,-56.443546,-55.92701,-55.810905,-55.07513,-55.907204,-55.638454,-55.7544,-57.02035,-55.776974,-55.853603,-56.61682,-55.91591,-55.327003,-55.439423,-55.883198,-55.809895,-56.192314,-56.20996,-56.171722,-56.760674,-56.47901,-56.039597,-55.591877,-55.52193,-56.077755,-56.194466,-56.328354,-55.571873,-54.742794,-56.135612,-56.99127,-56.29331,-55.839245,-55.773952,-56.151432,-55.465115,-54.86743,-56.068504,-56.359676,-56.04085,-56.523872,-56.365364,-55.86011,-55.835472,-55.85207,-56.261078,-56.29041,-55.7438,-56.284107,-55.579388,-54.440273,-56.104523,-56.76329,-55.880054,-55.893852,-55.916985,-55.709663,-55.629578,-55.98175,-56.145844,-56.223473,-56.77133,-57.071396,-56.82735,-56.30155,-55.96974,-56.0005,-56.374058,-56.389282,-55.761658,-55.8904,-56.57725,-56.505554,-55.92563,-55.68758,-56.176205,-55.90659,-55.941452,-57.155197,-55.62102,-55.15756,-56.526924,-54.835484,-55.420895,-56.469467,-55.61313,-56.784378,-56.665413,-56.367096,-56.12175,-55.294643,-56.085457,-55.48821,-56.133244,-57.593628,-56.204678,-55.75697,-55.464596,-55.23987,-56.187008,-55.704643,-54.798122,-55.037914,-56.052383,-56.482483,-56.4761,-56.378223,-56.407284,-56.889126,-55.73726,-55.753105,-57.15148,-56.180317,-55.553024,-55.3932,-55.59841,-56.896614,-56.418663,-55.68398,-56.05158,-55.93373,-55.843807,-55.067432,-54.203064,-55.58277,-56.517162,-56.28673,-56.03526,-55.26105,-56.104996,-56.445316,-55.522583,-56.093292,-55.934353,-55.131786,-55.996597,-57.06084,-56.306805,-56.111217,-56.78938,-56.018837,-56.566734,-57.05127,-55.925304,-56.049538,-55.779915,-55.640354,-55.896706,-55.07868,-55.24706,-56.508385,-57.012688,-55.700653,-55.39294,-55.84851,-54.96683,-55.440166,-55.603535,-56.183506,-57.205402,-56.58976,-56.94511,-55.79468,-55.06514,-56.18949,-55.748,-55.501972,-54.745163,-54.819496,-55.87912,-55.89323,-56.738182,-56.680473,-55.98332,-56.085793,-54.941635,-54.817398,-56.767475,-56.57171,-55.23681,-55.313812,-55.697422,-56.69983,-56.46692,-55.342155,-55.465237,-54.887188,-55.498615,-55.93735,-54.831593,-56.193974,-55.79593,-54.655212,-56.48005,-56.32225,-55.752563,-56.032932,-56.113373,-56.922813,-55.949524,-54.938606,-55.916622,-55.723755,-55.731388,-56.353783,-55.435127,-56.436825,-56.800312,-55.377216,-56.236446,-56.17697,-55.998516,-56.098354,-55.617344,-56.27577,-56.66341,-56.19038,-55.04221,-55.766632,-56.492985,-55.997665,-56.10285,-55.179745,-55.388115,-55.696106,-55.877262,-56.818954,-56.397438,-56.5294,-56.087723,-55.871258,-56.701378,-55.65027,-55.53988,-55.80808,-54.772884,-54.62162,-54.80381,-55.86085,-56.00245,-55.66827,-56.68243,-55.82608,-56.103264,-56.57235,-55.24289
