SampleData
2450.5059,5830.606,686.0143,-3667.6025,1899.0504,158.71921,-1725.7731,1957.9508,-1103.5054,288.66275,877.45874,-1029.0598,1254.2434,-658.8344,195.99245,298.05234,-776.1783,587.3909,-826.9197,83.43156,-264.6082,-526.5616,195.14885,-643.4349,212.49971,-266.38016,-28.654179,187.83142,-176.00497,363.54208,-91.72858,222.51494,84.20737,-31.09691,144.36989,-192.76646,19.983067,-217.21548,-180.67114,-174.60622,-302.17374,-142.1818,-274.6337,-130.94106,-136.36508,-101.72089,7.8291554,-32.59912,87.399315,48.49236,90.28271,90.82519,42.463013,58.441383,-28.147604,-35.06845,-97.03787,-137.48055,-156.25586,-203.71567,-185.22845,-202.36165,-174.97333,-148.55717,-122.57393,-70.7766,-45.63745,1.5106798,23.458559,45.25655,57.78114,47.79728,41.66959,10.218901,-15.472486,-50.476673,-88.47724,-116.51914,-146.75404,-161.33423,-171.24406,-166.83955,-153.53285,-135.19978,-104.89611,-75.77706,-44.356552,-16.870296,6.489798,22.94737,27.81063,26.757507,14.830093,-4.3660684,-27.65329,-53.347443,-80.65569,-107.64857,-126.32961,-138.99869,-145.42824,-143.84248,-133.95218,-116.606026,-96.79653,-73.08392,-49.13605,-28.489183,-10.427377,1.263336,6.428053,4.0923953,-4.5344763,-17.942532,-36.433914,-56.33398,-77.460556,-96.0287,-109.45888,-120.03569,-124.34085,-122.04388,-115.13795,-103.210815,-87.74589,-71.10393,-53.928886,-37.91764,-26.079508,-17.769335,-13.786161,-15.128431,-20.921703,-31.47605,-44.10129,-58.4743,-73.552345,-86.10795,-96.00561,-102.343864,-106.30871,-105.183174,-99.206245,-92.52498,-81.30152,-68.4278,-57.38734,-47.216476,-39.021038,-32.524254,-30.112732,-31.345276,-35.7685,-42.71456,-50.235367,-60.113026,-69.98255,-79.032684,-85.83579,-88.804405,-91.02338,-89.59966,-86.19452,-82.098854,-74.20511,-67.533554,-60.446854,-52.794,-48.956844,-45.375618,-44.124138,-44.925953,-46.122387,-51.678658,-57.78767,-62.360226,-67.613396,-72.708565,-76.01699,-77.95705,-79.29376,-77.61783,-75.810135,-73.91365,-69.245186,-66.696655,-63.471737,-58.584072,-57.091904,-56.10108,-55.491096,-55.954132,-56.313953,-58.387833,-60.56483,-62.58125,-65.42665,-67.00518,-68.2201,-69.29462,-69.28918,-69.26365,-68.95258,-68.06088,-65.94471,-63.818222,-64.19482,-64.37047,-62.781673,-63.063034,-64.05041,-63.274216,-63.418964,-63.752625,-63.644146,-63.84342,-63.276962,-63.70572,-63.445724,-61.9042,-62.24449,-62.712112,-62.467106,-62.28579,-62.99255,-64.716965,-65.33119,-66.718575,-69.10466,-69.76662,-69.99673,-69.888756,-69.66618,-69.400826,-66.673485,-64.004074,-62.74197,-60.180687,-58.46854,-57.55545,-55.934074,-56.73047,-57.862373,-58.601494,-61.102215,-63.62456,-67.57127,-70.933655,-71.95467,-73.09853,-74.18103,-74.12759,-71.51345,-70.19628,-69.02004,-64.7693,-61.755432,-58.732136,-55.98003,-53.923157,-51.94684,-52.86405,-54.257595,-56.297874,-60.036446,-63.37063,-67.07891,-71.02702,-74.1701,-76.49864,-77.097496,-76.18897,-75.53617,-73.35535,-69.04994,-65.07709,-61.34821,-57.84207,-54.685276,-52.33528,-50.6455,-50.35512,-52.271328,-54.20327,-57.85723,-62.73604,-67.44712,-71.95313,-74.33727,-77.90155,-79.4407,-77.79407,-77.2227,-73.53813,-69.56721,-66.006134,-60.66681,-57.211983,-52.96021,-49.867268,-49.39803,-48.79228,-50.963177,-54.851948,-58.48667,-62.885754,-67.624146,-71.79675,-76.0997,-79.15939,-79.33045,-79.72015,-78.638756,-75.080696,-71.26704,-65.91512,-61.076786,-57.297913,-53.419975,-50.59444,-49.465405,-49.66433,-50.552376,-54.04135,-58.677853,-62.309883,-66.51434,-71.053276,-75.6339,-78.988594,-79.6753,-79.085556,-78.59608,-76.03299,-70.84326,-66.77719,-61.874977,-56.186905,-53.577908,-51.151333,-49.11433,-50.488224,-52.89511,-54.17377,-57.3954,-63.57241,-68.57596,-71.56774,-74.356384,-77.428825,-78.64148,-78.30879,-77.80464,-74.60944,-70.699936,-66.893326,-62.075592,-57.571774,-53.133743,-51.13326,-50.51473,-50.03046,-51.533337,-53.980534,-58.159367,-62.22961,-65.92233,-70.32866,-73.73932,-77.39089,-78.01042,-77.25135,-78.023865,-74.418,-69.78484,-66.69892,-62.526424,-58.796394,-55.211323,-53.15846,-51.79583,-50.77779,-52.804043,-55.301754,-58.77182,-62.895184,-65.31032,-69.288445,-72.895195,-74.4654,-76.26254,-76.232666,-74.97655,-72.62515,-69.36371,-66.922935,-62.39893,-58.122425,-55.833107,-53.152817,-52.594368,-53.23404,-53.39596,-55.333366,-58.697937,-61.73392,-64.936264,-68.74735,-71.83258,-74.42381,-76.34318,-75.80882,-74.267296,-72.37342,-69.17755,-66.45868,-63.162167,-59.635548,-57.603855,-55.238018,-53.904602,-54.047882,-55.52064,-57.940937,-59.76358,-62.1423,-65.00521,-68.27577,-70.99852,-73.184616,-74.18207,-73.414444,-73.33751,-71.45228,-68.39153,-65.97693,-63.076286,-60.6965,-58.24044,-57.024136,-56.097397,-55.32572,-56.7087,-57.69942,-59.67509,-63.238346,-65.89096,-68.0036,-70.354095,-72.61675,-72.86771,-72.38541,-71.8237,-69.58708,-67.96386,-66.254166,-63.24557,-60.82601,-58.797443,-57.905148,-57.641956,-56.671825,-56.930634,-59.017796,-61.30168,-63.55878,-66.10496,-67.580376,-68.982506,-70.80038,-70.82063,-70.87422,-70.63287,-68.8051,-67.92778,-66.15388,-63.59955,-62.304626,-60.171505,-59.325073,-59.53799,-58.11647,-58.028255,-59.80886,-61.645103,-62.43022,-64.41986,-67.35713,-67.63192,-69.17304,-70.14212,-69.104904,-70.17819,-68.84516,-66.527,-65.57207,-63.547676,-63.02899,-62.05678,-59.815617,-59.17539,-58.97096,-59.57426,-60.701836,-61.176136,-62.647526,-64.86088,-66.329575,-66.83022,-67.397835,-69.10924,-69.65283,-68.34154,-67.77681,-66.919266,-65.27838,-64.44342,-63.168564,-61.234447,-60.61454,-61.29348,-61.015102,-60.75815,-61.651966,-62.11205,-63.752823,-65.25503,-64.79567,-65.4959,-67.048134,-67.43984,-67.36302,-67.92717,-67.585655,-65.97061,-65.64049,-65.08995,-62.57014,-61.547104,-62.016136,-60.774166,-60.785275,-62.351395,-62.53886,-62.681572,-63.298393,-64.76401,-65.45404,-65.65194,-66.75661,-66.23453,-66.128136,-66.66752,-65.91816,-64.7865,-63.96935,-64.54984,-64.24557,-63.20284,-63.127373,-62.18202,-62.13556,-63.347057,-62.84971,-63.087368,-64.90477,-64.452255,-64.18166,-65.76646,-66.1107,-65.81197,-65.20419,-65.29353,-65.98604,-64.83545,-64.269264,-64.41971,-63.527294,-62.969822,-63.253185,-64.067566,-63.877186,-63.16528,-63.14414,-63.72228,-64.54486,-64.190765,-64.33997,-65.288536,-65.688576,-65.62562,-64.67393,-64.92502,-65.72563,-65.07628,-64.3597,-64.14721,-63.985027,-64.12303,-64.816185
-63.914806,-62.935406,-63.731358,-64.46768,-64.80743,-63.640255,-63.629414,-64.38392,-63.86777,-64.79403,-65.10754,-64.87399,-64.49435,-64.317375,-64.754974,-63.78123,-64.47845,-65.08522,-64.6367,-64.86805,-63.63667,-63.656578,-63.740524,-63.06804,-64.393486,-64.57758,-64.46987,-65.236885,-64.21738,-64.11815,-65.21592,-64.093376,-64.32304,-65.369644,-63.5412,-64.37588,-65.390625,-63.80085,-64.61469,-64.61127,-64.41453,-64.934875,-64.352,-64.1388,-63.010616,-63.769608,-64.93566,-64.10735,-64.40337,-64.392204,-64.451195,-64.045906,-63.413853,-63.950665,-63.438972,-64.4868,-65.81054,-64.64756,-64.178474,-64.18104,-64.52435,-64.722305,-63.987766,-64.21137,-64.69563,-64.48757,-64.07745,-63.84827,-64.31395,-64.360374,-63.484127,-63.56823,-63.934883,-64.15505,-64.991646,-64.79059,-64.21554,-64.307205,-64.87745,-64.73442,-64.15709,-65.20497,-64.54819,-63.819763,-65.70976,-64.87395,-63.56424,-64.71821,-64.592575,-63.961033,-64.04048,-63.496014,-63.215958,-63.481785,-63.15945,-63.99927,-65.11074,-64.600746,-65.15796,-64.90554,-63.808064,-64.77564,-65.08339,-64.53618,-64.357376,-64.82817,-64.80076,-63.493683,-62.827667,-63.021946,-63.913586,-63.81183,-63.922943,-64.55883,-63.982285,-64.49677,-64.36999,-64.630974,-65.09451,-63.781105,-64.69521,-65.00086,-64.70956,-65.26667,-64.27375,-65.079475,-65.37994,-63.86306,-63.36623,-62.94755,-63.17237,-63.007626,-63.681065,-64.82296,-63.595917,-63.16694,-63.99133,-65.05292,-64.9607,-64.1812,-64.93928,-64.30867,-64.15891,-64.70434,-64.13339,-64.35305,-63.30199,-63.217827,-64.16893,-63.83066,-64.3708,-64.249146,-63.881607,-64.12427,-64.69502,-64.60517,-63.5738,-64.64031,-64.867355,-64.57497,-65.583694,-65.11146,-65.4952,-65.426186,-64.26748,-64.54149,-63.835327,-63.352177,-64.19241,-64.1773,-63.26995,-63.05282,-64.09154,-64.50176,-64.48747,-63.792786,-63.42332,-64.878494,-64.58792,-64.87375,-65.95935,-64.36003,-64.473465,-65.08261,-64.06719,-63.937683,-64.22034,-64.18307,-63.051636,-63.284798,-63.854183,-63.132782,-63.92569,-63.684555,-63.851604,-64.72118,-63.87205,-64.38414,-64.83261,-65.101776,-64.94817,-64.0034,-64.234886,-63.988876,-64.68745,-65.217514,-64.58758,-64.26083,-63.08035,-63.284092,-64.35524,-64.20863,-63.183796,-62.83391,-63.83282,-64.31507,-65.37222,-64.98372,-63.38768,-64.7833,-65.143875,-63.995625,-64.36871,-64.52935,-64.2813,-64.36355,-64.840485,-64.16281,-63.381676,-64.44479,-64.70742,-64.10113,-63.795025,-63.913296,-63.49975,-63.1387,-65.09562,-65.32872,-64.557686,-65.3682,-64.93064,-65.15503,-65.59439,-65.18106,-65.05023,-64.622604,-64.341446,-63.61332,-63.930706,-64.22812,-63.3333,-63.75865,-64.02017,-64.55627,-64.559105,-63.642952,-64.53938,-65.32035,-65.878716,-65.70711,-64.23855,-64.06608,-65.005554,-65.84592,-65.46405,-64.19548,-63.648476,-63.84167,-63.8313,-63.50426,-63.698753,-64.23936,-63.8841,-63.407887,-64.2147,-64.4923,-63.570087,-63.61913,-65.12662,-64.74072,-63.44667,-64.785706,-64.87994,-64.148834,-64.872604,-64.66515,-64.40356,-64.350266,-63.63209,-63.6171,-64.525024,-63.853264,-63.185047,-63.798985,-63.94554,-64.62946,-64.70227,-64.68665,-64.2383,-63.422913,-64.77491,-64.63083,-63.72218,-64.32836,-64.65116,-64.844986,-64.77329,-64.136475,-63.82834,-64.056366,-63.467716,-64.584145,-65.10461,-63.72698,-64.844826,-64.20177,-64.042656,-64.98589,-63.709305,-64.59115,-64.98919,-64.38764,-64.05499,-64.228165,-65.37032,-64.34646,-63.44651,-63.5048,-63.938824,-64.110565,-63.28444,-64.15725,-64.35871,-63.33592,-63.42734,-63.417988,-63.750824,-64.00459,-63.750137,-64.100105,-63.842808,-64.40315,-65.47166,-64.37625,-64.48433,-64.73345,-64.019424,-64.36052,-63.715496,-64.06097,-64.200066,-63.718426,-64.7083,-64.09077,-64.369804,-65.21965,-64.20797,-63.91919,-64.26719,-64.676506,-64.40514,-64.12234,-64.470665,-64.52139,-64.22466,-64.07173,-64.5784,-65.03876,-65.492,-64.56381,-63.85286,-64.732414,-64.16401,-64.2267,-63.848034,-63.318455,-64.78665,-64.12335,-64.25424,-65.2278,-64.21244,-64.48362,-64.138985,-63.605675,-64.333275,-64.02009,-63.819656,-63.559544,-63.798527,-64.27315,-64.31668,-65.4731,-64.70858,-63.865387,-64.74098,-64.65201,-65.34143,-65.3465,-64.18497,-64.064186,-64.74516,-64.970795,-64.20632,-64.31697,-64.66422,-64.76334,-64.75163,-64.42488,-64.7292,-64.41961,-63.84763,-63.994522,-64.191,-64.29631,-64.1996,-64.092026,-64.27806,-64.255356,-64.015755,-64.13761,-64.030045,-64.3706,-63.874584,-63.47516,-64.61686,-62.984585,-63.49113,-65.45609,-63.89475,-64.73711,-64.20425,-63.0935,-64.98877,-64.389175,-64.184364,-64.60491,-64.223145,-64.42746,-63.21123,-63.019306,-64.34276,-64.39149,-64.1729,-64.29144,-64.404,-63.974087,-63.612732,-64.89454,-65.023094,-63.95835,-64.51787,-64.25243,-64.11691,-64.828125,-64.78158,-65.23453,-64.588135,-64.249275,-64.769875,-64.22669,-64.17233,-63.83659,-63.64611,-64.238266,-65.11315,-65.29742,-64.49432,-64.30399,-63.476715,-63.77252,-64.60337,-63.84032,-63.920155,-63.973145,-64.37976,-64.375496,-64.01428,-64.64669,-64.08777,-64.170525,-64.326164,-64.416336,-65.29597,-64.57867,-64.54263,-65.01759,-64.76435,-64.78026,-64.52933,-64.359314,-64.69451,-65.28162,-64.4875,-63.98668,-65.00303,-64.67317,-64.30949,-64.51507,-63.7841,-63.56756,-64.001335,-63.820297,-64.304245,-65.66286,-65.261284,-63.885593,-63.672806,-64.45286,-64.835655,-63.59959,-63.11616,-64.151215,-64.13228,-63.97734,-65.26818,-65.52012,-64.25141,-63.964386,-64.06976,-64.5862,-65.21612,-64.762535,-64.44246,-64.582405,-65.0139,-64.91424,-64.60134,-64.08564,-63.64251,-64.32627,-64.42897,-64.800224,-64.708176,-64.267395,-64.643394,-64.29858,-64.48604,-64.07853,-64.47736,-64.77476,-63.70641,-64.75132,-64.47223,-64.1158,-64.01542,-64.00999,-65.21753,-63.709137,-64.35456,-64.07231,-62.98354,-65.66625,-63.866375,-63.028168,-64.67254,-64.31086,-64.383575,-63.183556,-63.931206,-64.965576,-64.50198,-64.49489,-63.83148,-63.50789,-63.392906,-64.19959,-63.709217,-64.001015,-65.65444,-64.181366,-64.771095,-65.673454,-64.42256,-64.80556,-64.25738,-63.88261,-64.91839,-64.66926,-64.25344,-64.653046,-64.77535,-64.483444,-63.72092,-63.217243,-63.815254,-63.946358,-63.777344,-64.87934,-64.938705,-64.43744,-65.65193,-64.67591,-63.142746,-64.02714,-63.994904,-63.97593,-63.70228,-63.66547,-64.501785,-63.916306
-64.23093,-64.8113,-65.092766,-64.86921,-63.739746,-64.45418,-64.293686,-64.095474,-64.675934,-63.569065,-63.90369,-64.571594,-63.91226,-63.502556,-63.967247,-64.432724,-64.46583,-65.01059,-63.923447,-63.779507,-64.9083,-64.12815,-64.49859,-64.64777,-64.17638,-64.06462,-63.593338,-64.13805,-64.23429,-65.04539,-65.464066,-64.13467,-64.46145,-64.34794,-64.1427,-64.66713,-63.835846,-64.516716,-65.05505,-64.447395,-64.851234,-64.21197,-64.31511,-64.224335,-63.272255,-64.42813,-64.75669,-64.57776,-64.119804,-63.59234,-64.372856,-64.017235,-64.29191,-64.3727,-64.48841,-65.15079,-63.69663,-63.755672,-63.829967,-63.715824,-64.90369,-64.550545,-64.60738,-64.381485,-64.72498,-64.535286,-63.31962,-64.55656,-63.554104,-63.383316,-65.01142,-63.611355,-63.588455,-63.98976,-64.16407,-64.80065,-64.516495,-64.803696,-64.343,-63.86522,-64.12089,-64.340324,-64.19447,-63.499138,-63.97722,-64.50592,-64.63171,-64.49478,-64.34643,-64.71488,-64.43361,-64.86348,-64.40698,-63.422356,-63.924007,-64.32414,-65.84276,-65.153755,-63.178856,-64.5587,-64.787704,-64.51618,-64.82706,-64.13327,-64.62317,-64.777824,-64.69448,-64.60784,-63.802773,-63.611744,-63.378304,-64.264465,-64.72608,-64.11879,-65.36637,-64.83196,-63.09994,-63.666763,-63.806427,-64.49425,-64.73117,-63.458633,-64.327774,-64.245636,-64.00553,-64.87811,-63.76401,-64.322464,-65.030495,-64.30946,-64.409966,-64.14048,-64.425285,-63.930706,-62.80912,-64.1372,-65.12566,-64.27316,-64.8294,-64.24618,-63.093643,-65.125885,-64.301254,-63.678905,-65.15133,-63.829735,-65.07972,-65.271576,-64.13122,-64.95272,-63.879387,-64.412285,-63.88837,-63.042233,-64.94076,-64.946304,-64.403595,-64.315445,-64.16971,-62.77008,-62.964546,-65.32972,-64.72985,-63.772392,-63.19642,-63.698742,-64.96923,-64.56449,-65.18274,-64.687874,-63.944973,-64.99068,-64.47571,-64.18401,-64.50726,-64.583275,-65.31666,-64.74769,-63.96408,-64.70114,-65.1618,-64.57729,-64.09614,-64.643036,-64.103195,-63.2622,-64.37586,-64.16058,-63.94862,-64.50058,-62.660694,-62.15526,-63.935238,-64.58448,-64.00782,-63.94316,-64.34137,-64.23119,-64.56746,-64.53083,-64.68609,-64.79036,-63.063625,-63.123066,-64.59723,-64.75799,-65.29459,-64.80251,-64.043274,-64.88938,-64.14828,-63.81911,-64.3741,-63.57293,-64.026054,-64.34904,-64.68454,-65.00831,-63.997856,-64.385605,-63.968765,-62.926506,-64.20004,-65.050606,-64.267204,-64.24028,-64.839905,-64.48646,-64.1156,-63.88814,-64.66324,-65.73364,-65.069046,-64.32642,-63.859573,-64.52342,-65.4251,-64.37261,-64.008736,-64.62619,-64.33581,-63.346222,-63.285076,-64.400475,-64.669014,-64.69717,-64.967285,-64.601364,-64.440735,-64.38836,-63.79263,-64.23216,-65.6312,-64.903015,-63.937744,-64.97539,-64.90938,-64.702934,-64.61641,-63.1696,-63.935814,-64.9003,-64.82839,-65.839745,-64.46244,-64.11121,-65.40831,-64.06494,-64.24118,-64.59675,-64.30151,-65.41452,-64.4392,-64.13764,-65.36556,-64.3909,-64.44885,-64.87246,-63.544044,-63.70772,-63.01294,-63.019135,-65.397675,-65.130104,-65.214035,-64.992714,-64.06089,-64.665794,-63.74812,-64.80999,-65.41303,-64.51146,-65.66296,-64.36542,-64.09176,-65.46834,-64.39106,-64.01451,-64.13317,-64.08833,-64.78874,-65.05361,-64.913666,-65.111404,-64.79646,-64.419,-64.51226,-64.00144,-64.0505,-64.20624,-63.921886,-64.56235,-64.986984,-64.71698,-64.01937,-63.634308,-64.40569,-64.73531,-63.919487,-63.476635,-64.54798,-65.1834,-64.301994,-63.88353,-63.783966,-64.105286,-64.7706,-64.463615,-64.03228,-64.09272,-64.79056,-64.83557,-64.11918,-64.86447,-65.03911,-64.07824,-64.35246,-64.28098,-63.731934,-64.44336,-64.61668,-64.16715,-64.70913,-64.67433,-64.34204,-64.45549,-64.05775,-64.46483,-64.84039,-64.21732,-64.242065,-64.251335,-63.94269,-64.37428,-65.2324,-64.99672,-64.283455,-64.75845,-64.69644,-64.22701,-64.67913,-64.684296,-64.20552,-63.952255,-64.24869,-64.556015,-64.4062,-64.70786,-64.58855,-64.397865,-65.03297,-64.2007,-63.25277,-64.0634,-64.57375,-64.56778,-64.42156,-64.39597,-64.73602,-64.91375,-64.48382,-63.642303,-63.766003,-63.828606,-63.768917,-64.582726,-63.68214,-63.597454,-65.027824,-63.151787,-63.153664,-64.64979,-63.48679,-64.78589,-64.50759,-63.455807,-65.28717,-64.5346,-64.26319,-64.79159,-64.21236,-64.262085,-64.05505,-64.03829,-64.00345,-64.30944,-64.54904,-64.5438,-63.865997,-63.57211,-64.543625,-63.451195,-63.909035,-64.91665,-63.287952,-63.652252,-64.479004,-64.27659,-64.14065,-64.87113,-64.95779,-64.08154,-65.22391,-64.849335,-64.08585,-64.66794,-63.735245,-64.18052,-65.51286,-65.14856,-64.2929,-64.11356,-63.867672,-63.974735,-64.78029,-64.18046,-64.292274,-65.22612,-64.53324,-64.16365,-64.288704,-63.635136,-63.499126,-64.538666,-64.59009,-64.23475,-64.6004,-64.50205,-64.58719,-64.11913,-64.06013,-65.1693,-65.01524,-64.71535,-64.43914,-64.08261,-64.27015,-64.13088,-64.776726,-64.68826,-64.4494,-65.03652,-63.801933,-64.03459,-64.45266,-62.587196,-63.075867,-64.68906,-64.76178,-64.16392,-64.005684,-64.180374,-64.32749,-64.628296,-64.1826,-63.783203,-63.717278,-63.798687,-63.79772,-63.096447,-63.382156,-64.58427,-64.96997,-64.59842,-64.55069,-64.61041,-64.709885,-64.991104,-64.291954,-63.73495,-63.898,-64.473785,-65.05268,-64.0678,-63.08119,-63.259342,-64.22633,-64.777626,-63.81065,-63.44217,-63.865547,-64.60845,-64.82095,-64.41157,-65.61192,-64.5653,-62.540043,-64.12358,-64.038574,-63.760292,-65.26855,-64.5878,-64.21322,-63.943157,-63.852512,-65.10246,-64.329155,-63.49696,-64.096085,-63.71585,-63.914314,-64.963905,-64.763275,-64.66063,-64.21668,-63.6382,-64.10243,-63.35729,-63.963,-64.819405,-64.12918,-64.862854,-64.50208,-64.80895,-65.3857,-64.19251,-64.67862,-64.721214,-64.2839,-64.17418,-64.361824,-65.35606,-64.48846,-63.938164,-64.46745,-64.29443,-64.50673,-64.55096,-64.84289,-65.177444,-64.27553,-64.21778,-64.80386,-64.123344,-64.148544,-64.37264,-64.08898,-65.210754,-64.98255,-64.09858,-65.43442,-64.94383,-63.76868,-64.463875,-64.785385,-65.868744,-65.31644,-63.65768,-65.12853,-65.19182,-63.411533,-63.614304,-64.062836,-63.772305,-64.6768,-64.6062,-63.43794,-64.86377,-64.615845,-63.795574,-64.72473,-64.037544,-64.56012,-64.7084,-64.07827,-64.43479,-64.36755,-64.93313,-64.79453,-64.46349,-63.99846,-63.63977,-63.982193,-63.528996,-64.64683,-65.11061,-64.063095,-64.6492,-65.4191,-65.03177
-63.58821,-63.75562,-64.34691,-63.970745,-64.975975,-65.11305,-64.62611,-64.85738,-64.83948,-64.622314,-63.909935,-63.802006,-63.960285,-63.98785,-64.66721,-64.684555,-65.08211,-65.32304,-63.697197,-64.35821,-65.104904,-63.625813,-64.87161,-65.37134,-63.70766,-64.22337,-65.247696,-64.63907,-63.89642,-64.22886,-63.861286,-64.3793,-66.117836,-65.08127,-63.9983,-64.95034,-65.19669,-65.325035,-64.90169,-63.967262,-64.8156,-64.43111,-63.425343,-64.59407,-64.65803,-64.59083,-64.923325,-64.459724,-65.027275,-65.11529,-64.454124,-64.22131,-64.569,-65.17144,-63.777046,-62.900814,-64.063194,-63.93273,-64.00468,-65.07531,-65.13792,-64.69115,-64.02375,-64.02126,-65.14892,-64.83357,-63.825222,-64.27952,-64.406555,-64.42125,-65.177376,-65.31365,-64.36112,-64.36818,-65.21399,-64.675964,-64.40716,-63.724274,-63.91725,-65.257,-64.134575,-64.07577,-64.63872,-64.71086,-64.386856,-63.169746,-64.39836,-64.34827,-63.99061,-64.885735,-63.620243,-63.8489,-64.5943,-64.09693,-64.041306,-64.31266,-64.578926,-64.04087,-63.979504,-64.35044,-64.58284,-64.91457,-64.00172,-63.61955,-64.53787,-63.21732,-62.84039,-64.82065,-64.58379,-64.5914,-64.481316,-63.869637,-64.42124,-64.08534,-64.33041,-63.802097,-63.506886,-64.25726,-63.833317,-64.24278,-64.1217,-64.20709,-63.970978,-63.6622,-64.77261,-63.619312,-63.98074,-64.93627,-64.49943,-65.65784,-64.57769,-63.544044,-64.07806,-64.309975,-64.542656,-63.770203,-64.46181,-64.92876,-64.41971,-64.532936,-64.08181,-64.57027,-64.51344,-63.853207,-64.01445,-63.71619,-63.91035,-64.72512,-64.610535,-63.4841,-63.49503,-64.11314,-64.19301,-64.23032,-63.920994,-64.686134,-65.381615,-64.79659,-64.45477,-64.40735,-63.994305,-64.013504,-64.82501,-64.070526,-63.659092,-64.39605,-64.13321,-64.763016,-65.45301,-64.75242,-64.21848,-64.75273,-64.39367,-64.15298,-64.7874,-63.74349,-64.30526,-64.54434,-63.18116,-63.80072,-63.805317,-63.866966,-64.04131,-63.606728,-64.46925,-64.8713,-63.865856,-63.956722,-65.0994,-64.93816,-64.223145,-63.967163,-64.29898,-64.03752,-63.765972,-64.21379,-64.21159,-65.00524,-64.7411,-64.768906,-65.28514,-63.742546,-64.02004,-64.16923,-64.5841,-65.765175,-64.24091,-64.407974,-64.247696,-63.52291,-64.76815,-64.06389,-64.24033,-64.751785,-64.31746,-65.18572,-64.88345,-64.03731,-64.00434,-64.92199,-65.710724,-64.77648,-64.028076,-64.56807,-64.348785,-64.16657,-65.62649,-65.03201,-64.18462,-64.48531,-63.580276,-64.25582,-64.785835,-64.69685,-64.8513,-63.728157,-64.01426,-64.55864,-64.397896,-64.95794,-64.14034,-64.00479,-64.97286,-64.255165,-64.29125,-63.632202,-63.09744,-64.78916,-64.60962,-64.75216,-65.04022,-64.36967,-64.670555,-64.50658,-65.3652,-65.55754,-64.68446,-64.403244,-63.91372,-64.929245,-64.55613,-63.332977,-64.72943,-65.366,-64.74245,-63.71963,-63.18877,-64.4585,-65.033195,-64.16208,-63.77322,-64.116516,-63.79706,-64.01274,-64.84043,-64.19799,-64.45765,-65.26401,-64.37734,-64.02079,-64.89152,-65.08447,-64.70652,-65.13242,-64.67696,-63.846035,-64.3006,-64.31986,-64.558495,-64.62212,-63.90759,-64.27688,-64.72864,-64.83504,-64.89507,-63.635166,-63.20993,-64.45022,-64.18256,-64.076004,-64.85423,-64.52812,-63.881622,-63.217,-64.21476,-64.73591,-63.05046,-63.13256,-64.20219,-64.595955,-64.214745,-64.08927,-64.800804,-64.08333,-63.485886,-63.92171,-63.90689,-63.687202,-64.04688,-64.829926,-64.45635,-63.75948,-63.84338,-64.00768,-64.23662,-63.650406,-62.644947,-64.08808,-65.44157,-63.70027,-63.909805,-64.94162,-63.518982,-63.610214,-64.06263,-64.22078,-63.779488,-63.074066,-65.12047,-64.55489,-63.622482,-64.91451,-63.757565,-63.687603,-64.07109,-64.315636,-64.128395,-63.925858,-66.06684,-64.80145,-63.513363,-64.6254,-64.34152,-64.52425,-64.87069,-64.84132,-64.20868,-64.015785,-62.94702,-62.637085,-64.36926,-63.760384,-64.45516,-65.43641,-64.26699,-63.662907,-64.0189,-65.15132,-63.853664,-63.57208,-64.568184,-63.839447,-65.309,-65.36958,-63.502357,-63.90012,-64.80761,-65.040344,-64.73486,-64.65626,-64.59318,-64.1185,-63.84381,-64.77248,-65.669426,-64.87759,-64.350784,-63.98155,-63.20293,-63.308487,-64.192024,-64.14116,-64.39951,-64.99361,-63.73475,-64.176735,-64.12127,-63.71649,-65.27571,-63.61533,-63.399857,-64.79575,-64.190636,-64.993355,-64.97576,-64.16572,-64.29433,-64.398705,-64.288025,-64.24501,-63.92021,-63.40133,-64.69954,-64.81022,-63.33366,-64.26151,-64.47617,-64.38968,-65.00894,-63.6278,-64.19032,-64.71658,-63.565407,-64.801094,-64.57092,-63.595547,-64.28759,-64.73101,-64.54024,-63.497574,-63.82158,-63.676506,-63.62017,-65.296745,-64.2643,-63.8612,-64.977684,-63.98006,-63.81092,-64.24953,-63.890095,-64.04449,-64.49915,-64.61988,-64.578224,-64.095894,-63.51274,-64.30808,-64.885,-64.20073,-64.56225,-65.40087,-64.79815,-64.05245,-63.868103,-64.222786,-64.83514,-64.19744,-63.829765,-64.07555,-64.67001,-64.74344,-63.654213,-65.12089,-65.522606,-63.91186,-63.736748,-63.750645,-64.854294,-64.298096,-63.925518,-64.66325,-64.182816,-65.118065,-64.149254,-63.416218,-63.69592,-63.00662,-64.63655,-64.75332,-64.54484,-65.10993,-63.610004,-63.484142,-64.08199,-63.976456,-64.42998,-64.020874,-63.72909,-65.24299,-64.96733,-63.9802,-64.82872,-63.736404,-63.214504,-64.86298,-65.11624,-64.6399,-64.08061,-64.36801,-64.65254,-64.366844,-64.81121,-64.407196,-64.0848,-64.37837,-63.954697,-63.816406,-64.52829,-64.553345,-63.933483,-64.40731,-64.241844,-63.670258,-63.72377,-64.050156,-64.83088,-64.248405,-64.40823,-64.505035,-63.296593,-64.4071,-64.96699,-64.499,-64.69814,-64.04003,-63.57686,-63.76928,-64.58638,-64.450554,-63.05761,-63.024483,-64.06575,-64.27408,-63.508106,-64.14431,-64.71525,-64.23518,-65.53805,-64.99907,-62.8853,-63.32522,-64.008064,-64.311424,-64.53191,-64.684044,-63.925125,-63.412693,-65.40614,-64.54282,-62.894913,-64.4591,-64.1628,-63.94594,-64.90651,-64.46414,-64.44497,-64.611404,-64.396996,-64.024055,-63.23659,-63.40756,-63.962826,-63.79853,-63.846252,-64.16535,-64.73881,-64.63596,-64.73154,-65.25953,-63.972717,-63.592194,-64.47875,-64.68403,-64.11739,-63.53688,-64.678444,-64.80415,-63.702736,-63.313465,-64.12428,-65.048225,-63.946877,-64.34298,-64.53594,-63.31614,-64.18765,-64.18271,-63.945835,-64.04971,-63.89749,-64.65966,-64.613815,-64.57295,-63.936165,-63.48112,-64.57339,-64.97323,-65.00634,-64.27302
-63.99087,-64.62045,-64.15156,-64.40396,-64.8526,-64.415375,-64.22991,-64.042,-64.10554,-64.48658,-64.53723,-63.66759,-63.860096,-64.924576,-64.45489,-64.86191,-64.57565,-64.02207,-64.82669,-63.37815,-63.835762,-65.549095,-64.73252,-63.982475,-63.858658,-64.82938,-64.85576,-64.35301,-64.15431,-63.722168,-64.45825,-64.48304,-64.154106,-63.670185,-63.51186,-64.60619,-64.28586,-63.594524,-63.987766,-64.299255,-64.004715,-63.758614,-64.61332,-65.44357,-64.72318,-64.01503,-64.205795,-63.90851,-63.703728,-63.558422,-64.027504,-64.97056,-64.45643,-64.24608,-64.24936,-63.917084,-64.30778,-64.60389,-64.24322,-63.342693,-63.946983,-65.07556,-64.13332,-63.607338,-64.580536,-64.30792,-62.97991,-63.61753,-64.21216,-63.91283,-65.00925,-64.66983,-63.85641,-63.78364,-63.301456,-64.185234,-64.436264,-64.35288,-64.47588,-63.828312,-64.08467,-64.12651,-63.915726,-63.81445,-64.004715,-64.24424,-63.4766,-63.305187,-63.29219,-64.02121,-64.876144,-64.0869,-64.69286,-64.59666,-63.54856,-64.2779,-63.68151,-63.93486,-65.01017,-64.25645,-64.57355,-64.61166,-64.10541,-63.921295,-63.528076,-64.52051,-64.76741,-64.327446,-64.84834,-64.038345,-63.269627,-63.610233,-63.714813,-64.19114,-64.35317,-64.74691,-64.84307,-64.07918,-64.3464,-64.68764,-65.48066,-64.99418,-64.054344,-64.69803,-63.420723,-63.990894,-65.514145,-64.21365,-63.85977,-64.13983,-64.39559,-64.178734,-63.627872,-64.38998,-65.10352,-64.36895,-63.78587,-64.26087,-64.360504,-64.481606,-63.80745,-63.537712,-64.56954,-63.72188,-63.531662,-64.353966,-64.00068,-64.22258,-64.57776,-64.919716,-64.47357,-63.79903,-64.350044,-63.62711,-63.503704,-64.75964,-64.27293,-63.85087,-63.704082,-63.076538,-63.730854,-64.53536,-64.60589,-65.388405,-65.39275,-64.267746,-64.70893,-64.498886,-63.875168,-65.001625,-64.6713,-63.80285,-63.834724,-64.0325,-64.59251,-64.53916,-64.63271,-64.47787,-64.45726,-65.14452,-63.744896,-62.948917,-64.38624,-63.69739,-63.36763,-65.037415,-64.69238,-63.84821,-64.00784,-64.59325,-64.79362,-64.331085,-65.204185,-64.77894,-63.576588,-64.073135,-63.497482,-63.192448,-63.98283,-63.619347,-63.291073,-64.604546,-64.87269,-64.381935,-65.23147,-64.236694,-63.795143,-65.04127,-64.61315,-64.415596,-64.68233,-64.666084,-64.59988,-65.04241,-65.0238,-64.98139,-65.986565,-64.48451,-63.425194,-63.394363,-62.737286,-64.62461,-64.81682,-64.45391,-65.445244,-64.28342,-63.989162,-64.30845,-64.90596,-65.322235,-63.655136,-63.67514,-64.60459,-64.76474,-64.65895,-63.960316,-63.659943,-63.9907,-65.07067,-64.20333,-63.625782,-65.199234,-64.55591,-63.8112,-63.51772,-63.65801,-64.81424,-64.453804,-64.426186,-64.978584,-64.967674,-64.61693,-64.06256,-64.29826,-64.66514,-63.965645,-63.762268,-64.54122,-63.616013,-63.436504,-64.818375,-64.766655,-64.940285,-64.54837,-64.23431,-64.72947,-63.549736,-64.288506,-65.81455,-64.40723,-63.888397,-64.26673,-64.04687,-64.17375,-64.12398,-64.29483,-64.49445,-64.015366,-63.43957,-64.13821,-65.15932,-64.25822,-63.967968,-64.727036,-63.901264,-63.1893,-63.26931,-64.07339,-64.938446,-64.2177,-63.738754,-63.23187,-63.535427,-64.783035,-63.958378,-64.073395,-64.88269,-64.056404,-63.72458,-64.20927,-64.19125,-63.433937,-64.25178,-64.47015,-63.500603,-64.45903,-64.69907,-64.90764,-65.09064,-64.076454,-64.55383,-64.91229,-64.69644,-64.551796,-64.298805,-64.48638,-64.717545,-65.41571,-65.05948,-64.69042,-64.37173,-62.776993,-64.031,-65.12397,-64.059235,-64.818275,-64.69754,-63.582684,-63.98872,-65.027374,-64.88938,-63.59359,-64.11373,-64.70855,-63.762646,-64.348305,-64.991035,-64.679245,-65.121086,-64.53394,-63.48885,-64.04756,-64.15568,-63.597782,-64.79706,-65.361664,-63.825825,-63.53539,-63.516556,-63.887104,-65.09491,-63.999924,-63.77569,-65.32665,-65.34765,-64.93465,-64.515854,-64.556656,-65.16629,-64.35026,-63.88468,-64.52882,-64.38363,-65.19587,-64.59024,-63.28043,-64.50444,-63.634926,-64.118675,-65.17577,-63.374924,-64.00493,-64.00748,-64.140785,-64.298195,-63.11327,-64.59949,-64.79583,-64.83761,-64.7631,-63.665665,-65.22358,-64.71976,-63.255016,-63.728374,-63.722878,-64.20162,-64.4004,-64.424095,-64.4743,-63.532764,-63.556652,-64.05385,-64.08947,-64.301865,-63.970264,-64.29892,-64.50641,-63.794483,-64.03634,-63.930435,-63.968063,-64.947685,-65.00518,-64.6545,-64.486336,-64.16783,-64.39976,-64.24009,-63.88362,-64.852425,-64.46002,-63.99917,-64.92479,-64.81682,-64.29033,-63.580536,-64.48516,-64.872635,-64.42962,-65.49321,-64.585045,-64.618355,-64.37678,-62.59026,-63.508568,-63.874863,-63.898537,-63.750854,-64.16287,-65.35132,-64.229866,-64.34424,-64.20759,-63.996468,-64.91091,-63.405087,-63.807877,-64.82616,-63.76707,-63.680946,-64.17879,-64.6734,-64.5882,-64.68737,-64.39047,-63.757927,-64.20947,-64.641685,-64.46365,-64.41485,-64.679985,-63.483974,-63.864876,-65.260666,-64.05311,-63.569134,-64.13655,-65.37205,-65.01859,-63.75275,-64.803375,-64.71523,-64.56141,-64.628784,-64.44097,-64.937225,-64.12403,-64.39736,-64.950264,-64.08752,-64.087776,-64.111244,-63.96732,-64.25781,-64.53515,-64.4553,-63.74699,-63.486717,-64.184105,-64.3751,-64.08888,-63.983253,-64.02415,-64.63292,-64.40304,-64.07315,-64.75791,-64.92387,-64.51056,-63.401722,-63.875275,-65.16793,-64.348366,-64.110535,-64.05738,-64.05811,-64.59858,-64.10565,-64.54585,-64.72604,-64.40382,-64.34105,-63.586422,-64.85726,-65.38372,-64.580124,-65.005516,-64.34534,-64.152084,-64.07701,-64.191696,-64.65324,-63.86882,-64.02803,-63.93928,-64.15732,-64.75027,-64.49884,-64.79589,-64.37015,-63.973984,-63.893906,-63.779686,-63.75523,-63.49301,-64.26746,-65.176765,-64.87686,-64.44394,-64.838165,-64.24653,-63.961784,-64.84453,-64.30798,-64.129776,-64.09034,-64.252625,-64.8025,-63.44776,-62.751926,-63.800613,-64.665695,-64.9528,-65.18218,-64.47258,-64.27221,-64.91623,-63.56884,-64.28099,-65.28939,-63.77401,-64.03048,-63.853817,-63.904263,-64.46913,-63.896145,-64.662384,-64.329834,-63.71261,-64.400665,-64.03674,-64.70487,-65.49574,-64.32227,-63.73912,-63.940216,-63.864967,-64.63452,-64.843666,-63.57262,-64.2197,-65.54764,-64.92189,-64.30406,-64.06419,-63.59759,-63.975075,-65.208824,-65.098335,-64.1747,-64.65454,-64.99481,-64.22113,-64.714195,-66.05416,-65.104416,-63.82168,-64.28677,-64.18771,-64.1176,-64.45945,-64.19841,-64.58491,-64.36627,-63.733437,-64.14355,-64.25261,-64.24531,-64.16703
-65.18265,-65.4091,-64.10256,-65.23471,-65.07196,-64.50772,-64.804184,-63.23403,-64.60002,-65.23083,-63.44238,-64.13043,-64.88008,-65.00808,-64.73431,-64.31715,-63.728886,-63.991207,-65.86538,-65.5658,-64.569214,-64.35195,-64.478294,-65.609344,-64.96137,-63.995193,-64.54925,-64.86368,-65.13525,-65.3125,-65.161255,-65.28429,-65.437485,-64.36368,-63.463753,-64.076744,-64.06691,-63.72325,-64.27914,-64.238174,-63.570114,-64.12752,-64.83733,-63.896584,-62.929874,-63.616276,-64.30288,-63.658775,-64.25662,-64.989075,-63.993702,-64.48814,-64.71179,-64.30584,-65.12348,-64.17833,-64.20697,-65.59156,-64.32142,-63.685207,-64.837494,-64.55059,-63.436474,-64.12866,-64.7679,-64.029526,-64.24495,-64.15098,-64.06303,-64.75821,-64.43007,-64.31751,-63.84503,-63.539764,-64.47873,-64.08425,-64.349655,-64.96983,-64.52279,-65.341805,-64.84421,-63.48918,-63.746273,-64.425644,-64.239204,-63.88595,-64.78803,-64.2847,-63.735107,-64.13541,-63.98128,-64.140076,-63.933674,-64.927246,-64.44262,-63.258785,-64.89477,-64.60871,-63.627014,-63.39015,-63.48322,-64.87855,-64.55225,-64.04501,-64.021774,-63.745094,-64.84895,-64.36103,-63.52622,-63.979034,-63.852974,-64.941315,-64.29704,-63.17599,-64.9813,-64.950134,-64.64515,-64.706764,-63.433,-64.378426,-65.369255,-64.17362,-64.10978,-64.88537,-64.65717,-64.270164,-64.19775,-64.416176,-64.13518,-64.641975,-65.23794,-63.853252,-64.54778,-65.12828,-64.38357,-65.1322,-64.35361,-64.63072,-65.39973,-64.52103,-64.37475,-63.95588,-64.26671,-63.567078,-63.30755,-64.95119,-63.56089,-63.162945,-64.30107,-64.06641,-64.80955,-64.30336,-64.03201,-64.93294,-63.95577,-63.99493,-64.60807,-63.623672,-63.74154,-64.71392,-65.30078,-64.581955,-63.736485,-64.89224,-64.44264,-64.47847,-65.10852,-63.03991,-64.280426,-65.08667,-63.34852,-64.37778,-64.695076,-64.47717,-63.876152,-63.529575,-64.18596,-63.53849,-64.09189,-64.09514,-63.849934,-64.61878,-64.3457,-64.802704,-64.759636,-64.049515,-64.09076,-64.52323,-64.21074,-64.17866,-65.38737,-64.6384,-63.7529,-63.787014,-63.820057,-63.90743,-63.727253,-64.74101,-64.49518,-63.616356,-63.883762,-64.43615,-65.30558,-64.483864,-63.44957,-63.669617,-64.04383,-64.282555,-65.18773,-66.43618,-65.01539,-64.00544,-64.74887,-64.008,-64.28867,-64.66321,-64.223526,-64.49276,-63.36768,-63.73981,-65.100075,-64.33126,-64.83818,-64.64487,-63.03317,-63.34062,-63.864117,-64.19996,-64.22606,-63.791992,-64.45087,-64.8117,-64.23588,-64.093346,-64.26397,-64.79983,-64.63719,-63.397907,-64.09804,-64.96717,-64.29268,-64.855095,-64.88718,-64.365105,-64.99189,-64.7792,-64.51503,-64.88267,-64.55875,-64.57304,-64.81567,-64.36459,-64.35765,-64.43596,-64.46154,-64.93733,-65.48796,-65.33018,-64.4583,-64.89914,-65.00577,-64.84641,-65.03435,-63.937817,-64.26866,-63.787964,-63.47031,-65.24113,-64.68286,-64.96994,-65.16765,-63.899773,-64.32795,-64.36239,-64.44175,-64.247894,-64.35639,-65.36766,-64.86498,-64.903404,-65.00093,-64.11704,-63.86357,-63.71218,-64.19608,-64.25714,-63.93597,-64.652084,-63.551487,-62.906166,-64.37536,-63.829174,-64.1754,-65.41444,-64.43839,-64.216675,-64.380196,-64.18988,-63.551918,-63.633602,-65.5284,-64.206726,-63.08024,-64.842224,-64.50208,-64.73778,-64.77793,-63.8969,-64.302216,-63.45041,-63.572647,-64.94367,-64.823524,-64.544556,-65.41336,-65.34509,-63.025517,-62.878937,-64.37228,-64.54381,-64.614136,-64.21852,-64.73464,-65.71802,-64.3249,-63.42106,-64.90365,-64.60977,-63.444714,-64.28602,-64.46025,-64.51243,-64.368744,-63.941925,-64.5623,-64.34841,-64.37467,-64.34062,-64.17436,-64.11858,-63.538776,-64.56323,-64.53762,-63.39875,-63.76191,-64.21974,-64.67732,-65.15824,-64.72238,-63.75569,-64.07959,-64.09455,-64.117,-65.14802,-64.460625,-64.57726,-64.78337,-63.74611,-64.13909,-63.94732,-64.13404,-64.65878,-64.0708,-64.45364,-64.47677,-64.69587,-64.89338,-63.88895,-64.32642,-64.31708,-63.926517,-64.28581,-64.17335,-65.13959,-65.291306,-65.1431,-64.8688,-64.0492,-65.09519,-64.15395,-63.223278,-64.630325,-64.8004,-64.59303,-65.05502,-65.67573,-64.30131,-64.26255,-65.034256,-63.292885,-64.20059,-64.19869,-63.06599,-64.435265,-63.982044,-64.011604,-64.9043,-64.94217,-65.14381,-63.911835,-63.68481,-64.52208,-63.985867,-64.257484,-64.46563,-64.31808,-64.66211,-64.217415,-64.47111,-64.47201,-64.3825,-65.31125,-64.77949,-64.60355,-64.72901,-63.3753,-63.212055,-63.8515,-64.10821,-64.74544,-64.44823,-63.99031,-64.87857,-64.40921,-63.40277,-64.41996,-63.999645,-62.845047,-64.40172,-64.95852,-63.99354,-64.297745,-64.21174,-63.710587,-64.02748,-64.25038,-64.05318,-63.959156,-64.598816,-65.225784,-64.35,-63.90942,-64.77101,-64.81334,-64.21896,-63.888668,-64.32198,-64.910194,-65.084435,-64.865265,-64.15594,-63.783173,-63.50116,-63.84556,-64.18063,-63.840088,-64.83285,-65.37782,-64.49122,-64.96587,-65.34577,-64.24045,-64.322235,-64.37448,-63.885265,-64.80555,-64.86083,-64.654205,-65.32085,-65.025444,-64.906784,-65.01038,-64.28599,-63.92042,-63.751938,-63.50874,-64.38451,-64.58257,-63.816257,-63.889183,-63.936295,-64.3912,-63.95929,-63.48434,-64.66733,-64.54152,-64.79987,-65.06693,-64.396286,-64.6149,-63.90606,-64.284096,-64.650314,-63.254715,-64.24551,-65.100845,-64.462814,-65.1783,-64.95273,-64.35028,-64.65971,-63.681595,-63.78809,-64.31914,-63.623688,-64.68985,-64.48346,-63.563255,-64.7219,-64.2459,-63.469223,-63.900578,-64.39745,-64.565125,-64.02728,-64.45848,-64.171394,-63.511826,-64.588036,-64.31251,-63.967243,-65.04629,-65.35106,-65.00244,-64.19404,-64.39823,-64.97653,-64.40803,-63.919872,-63.71486,-64.218124,-64.37845,-63.991543,-63.992813,-64.39634,-64.84918,-64.40217,-64.30504,-63.71892,-63.85684,-64.7939,-63.56764,-63.501934,-63.713287,-63.8204,-65.02695,-64.242165,-63.72569,-64.261795,-64.147,-63.700165,-63.982132,-65.0865,-65.06416,-64.38671,-63.34743,-63.512646,-64.98016,-64.8571,-64.68377,-63.836243,-63.046406,-64.37016,-64.239006,-64.19557,-65.28736,-64.21484,-63.242195,-64.04572,-64.6891,-65.63804,-65.538315,-63.674522,-64.91,-65.74258,-63.761013,-64.40978,-64.81649,-64.326675,-64.48605,-64.72926,-65.58219,-64.68058,-63.907494,-63.945858,-63.786266,-64.292244,-63.703526,-63.55223,-64.66728,-64.658485,-63.78721,-63.977486,-64.62133,-64.28383,-64.22335,-63.91551,-63.90832,-65.06891,-64.475
-63.859207,-64.75759,-64.41401,-64.1045,-64.106255,-63.94497,-65.1223,-65.30717,-64.82841,-64.53389,-63.83801,-64.84271,-64.91583,-64.48084,-65.08267,-64.31267,-64.50887,-64.390625,-63.837593,-64.8672,-63.4106,-62.53622,-64.70986,-64.8413,-64.5189,-65.42863,-65.526405,-64.79117,-64.135765,-64.69995,-64.42245,-63.779106,-64.76065,-64.466255,-63.578312,-64.08232,-64.50443,-64.381645,-64.760414,-65.23888,-64.43732,-63.883583,-64.42141,-64.60881,-64.71638,-65.32069,-64.93867,-63.908184,-64.230415,-64.05547,-63.94503,-64.82399,-63.80453,-64.21784,-65.78292,-64.47838,-64.55109,-65.15476,-63.652504,-62.940872,-63.71414,-64.995255,-64.201836,-63.64801,-64.56896,-63.592968,-64.11689,-65.0036,-63.81,-63.645607,-63.483284,-64.16266,-64.898476,-63.86972,-64.70926,-65.57009,-64.37675,-63.777004,-63.88093,-64.72813,-64.89107,-64.46884,-65.16375,-64.67245,-64.16204,-64.746765,-64.44462,-64.09935,-64.03948,-64.03269,-64.118164,-64.53354,-65.24468,-65.15246,-64.333725,-64.22232,-64.56298,-64.04768,-64.506355,-64.74397,-63.53587,-64.41365,-65.5144,-64.416916,-63.772633,-64.54795,-64.363434,-63.79085,-65.045784,-65.306,-64.30399,-64.34669,-64.149925,-63.893913,-64.31004,-63.928802,-63.71596,-64.811676,-64.35984,-63.478195,-64.94642,-65.43556,-64.38326,-63.766277,-63.535683,-64.33785,-64.54595,-64.01153,-64.17973,-64.07233,-64.15509,-64.52393,-64.30335,-64.28123,-65.24786,-64.841675,-63.626743,-64.86796,-65.05155,-63.995575,-64.65662,-65.14961,-65.04458,-64.497375,-64.041824,-64.7168,-64.91724,-64.01786,-64.03675,-63.89346,-63.764805,-64.89032,-64.601395,-64.65003,-65.40377,-64.26782,-62.776478,-63.26884,-64.10102,-63.618126,-65.229485,-65.474556,-64.11085,-65.12277,-64.9052,-65.107315,-64.96027,-64.15118,-65.09614,-64.73049,-64.63371,-65.28264,-65.16859,-64.38909,-63.891018,-64.77051,-64.709946,-64.50902,-65.235565,-65.28411,-64.50892,-64.030815,-64.382515,-64.73975,-65.11564,-64.023544,-63.68137,-65.583496,-64.71882,-63.997284,-65.0314,-64.305695,-64.548294,-65.1871,-64.10462,-63.740414,-64.63305,-65.30016,-65.47247,-64.967896,-64.96546,-64.9514,-63.423416,-63.955368,-64.41702,-63.14014,-63.88134,-64.181755,-64.61252,-65.16235,-64.47937,-65.66865,-65.98497,-64.334366,-63.998272,-64.67434,-64.78035,-64.342094,-64.51601,-64.26968,-64.462006,-65.17272,-63.91828,-63.91441,-64.69716,-63.600418,-63.994385,-64.98201,-64.24128,-63.79163,-63.822346,-63.373165,-63.773563,-64.41648,-64.230606,-64.66067,-65.086914,-64.522026,-64.46717,-64.841705,-63.814888,-63.799976,-65.04953,-64.730675,-64.45708,-64.072914,-64.43053,-65.17279,-64.18959,-64.3445,-64.29394,-63.72438,-64.45603,-64.44074,-64.37361,-64.65319,-64.6407,-64.139366,-64.2185,-65.63715,-65.44753,-64.87248,-65.30145,-65.18804,-65.08827,-64.34728,-64.230125,-64.74477,-64.08114,-63.8529,-64.65754,-65.49717,-64.554,-63.83541,-64.3643,-64.07362,-65.095024,-64.475685,-62.50884,-63.755775,-64.2396,-64.40154,-65.184326,-64.51719,-64.42071,-64.04026,-64.1296,-65.31571,-64.83687,-64.52178,-64.494896,-63.343433,-64.134796,-65.394226,-63.805576,-63.533035,-64.670944,-63.948643,-64.366394,-64.74833,-64.07683,-64.83502,-64.92222,-64.501045,-64.826195,-64.77046,-64.18779,-64.18622,-64.5516,-64.32294,-64.739624,-65.06812,-64.81994,-64.35539,-63.682163,-64.60827,-65.33077,-64.411896,-63.80125,-64.2579,-64.733536,-64.00851,-64.18617,-64.6723,-63.500557,-64.07003,-65.09921,-64.14692,-64.388565,-65.04142,-64.82343,-64.63648,-64.47796,-64.49471,-63.59501,-63.560143,-64.19658,-63.34651,-63.750477,-64.63586,-64.35347,-64.2678,-64.6638,-64.51335,-63.527077,-64.16708,-64.64201,-63.851326,-64.49777,-64.883606,-64.725006,-64.821205,-64.58886,-64.979256,-64.86345,-63.821716,-63.97486,-64.18118,-63.710033,-64.25997,-64.743004,-64.76945,-64.85128,-64.144226,-63.523563,-63.864506,-63.803375,-63.826836,-64.69095,-64.85344,-65.37187,-64.857834,-63.135864,-64.07268,-64.92503,-63.57041,-63.399998,-65.45497,-64.96189,-63.272293,-65.19207,-65.137245,-63.727016,-64.32648,-64.070595,-64.505325,-64.53349,-63.660225,-64.77935,-65.1193,-64.237564,-65.00773,-64.57234,-63.663845,-65.337975,-65.317505,-64.49292,-65.00807,-64.711525,-64.85737,-64.28928,-63.58947,-63.92103,-63.61276,-64.38464,-65.10974,-64.43965,-64.0807,-64.45439,-64.470825,-63.49493,-63.975655,-64.77412,-64.274666,-64.58372,-64.680595,-64.1183,-64.11744,-64.21742,-63.92393,-64.19245,-64.276985,-63.749046,-64.656334,-65.07867,-64.86646,-64.80599,-63.937096,-63.942,-64.2501,-64.495,-64.191895,-64.14116,-64.61625,-63.74579,-64.48108,-65.47412,-64.78046,-64.24908,-64.10789,-64.83508,-64.84914,-65.05908,-65.25817,-64.019554,-64.3452,-64.77325,-63.894157,-64.26279,-64.29032,-63.53583,-64.15086,-64.16271,-64.09537,-65.12087,-64.95725,-64.40053,-63.84808,-63.473118,-64.06411,-64.348785,-63.87155,-64.37412,-65.48691,-64.575645,-63.941566,-64.19459,-64.08075,-64.44931,-64.06214,-64.4614,-64.925125,-64.09084,-64.39004,-64.82251,-63.95783,-63.218975,-64.62572,-64.76191,-63.196846,-64.406105,-64.95252,-64.62198,-64.25104,-63.186214,-64.73575,-64.58426,-63.298,-64.318184,-63.923645,-63.318943,-63.273266,-63.909122,-64.43961,-64.22861,-64.48029,-63.86604,-64.59489,-64.19569,-62.7804,-64.38667,-64.60085,-64.28487,-64.39685,-63.84955,-63.809704,-64.309875,-65.40671,-65.08412,-65.65678,-65.41588,-64.00041,-64.7974,-63.8793,-64.19403,-64.49106,-63.17579,-64.24988,-64.04725,-64.82378,-65.44554,-63.87693,-64.525826,-64.8217,-64.67937,-64.632195,-63.58183,-63.7415,-64.31715,-64.16989,-64.39584,-64.61499,-64.79181,-65.370415,-64.94181,-64.31685,-64.36418,-64.42018,-64.606735,-64.61516,-64.83822,-64.476295,-63.88086,-64.19573,-64.19857,-63.91573,-64.02774,-64.6233,-64.62225,-64.28199,-64.80055,-64.73726,-64.216354,-64.35238,-64.23505,-64.367935,-65.71395,-65.4615,-63.715034,-64.32317,-65.237045,-64.54807,-64.25117,-64.3866,-64.4765,-64.067444,-63.880066,-64.880455,-64.925674,-64.28337,-64.93054,-65.01501,-64.42833,-64.39322,-64.126,-64.607445,-64.85328,-64.25482,-64.84743,-64.52224,-64.53786,-64.69307,-62.845814,-64.12132,-64.99949,-64.31791,-65.30893,-64.19416,-64.53093,-64.87822,-63.570374,-64.29146,-64.07809,-64.11323,-64.55562,-64.40585,-64.34135,-63.970646,-64.394936,-64.21633
-64.03041,-64.02433,-63.68917,-63.879715,-64.0149,-64.56729,-64.47236,-64.82014,-65.63807,-64.41358,-63.63844,-63.92802,-64.380875,-65.2414,-65.30596,-64.270424,-63.66573,-64.40334,-64.266655,-63.942593,-64.89757,-65.16774,-64.26044,-62.91093,-63.397316,-64.93585,-64.744255,-64.22666,-64.29546,-64.27417,-64.46313,-64.576,-63.847538,-63.95283,-64.35449,-64.306915,-64.81414,-64.576584,-64.93564,-64.9221,-63.8304,-63.80948,-63.866756,-64.2062,-64.30036,-64.23489,-64.1712,-63.800518,-63.66662,-63.537846,-64.083305,-63.967255,-64.09042,-63.598618,-63.008255,-64.95708,-63.91512,-63.397976,-65.04416,-63.827015,-64.12429,-64.39491,-63.591637,-63.975533,-64.39051,-64.946396,-64.39303,-64.225876,-64.493385,-64.40219,-64.991585,-64.29936,-63.887753,-64.6489,-63.7749,-63.7719,-64.98917,-64.14306,-64.32552,-64.99212,-64.00793,-64.37948,-64.69417,-64.47713,-64.64676,-65.119774,-65.02125,-63.40418,-63.70006,-63.963493,-63.473312,-64.66065,-63.896935,-63.50116,-64.77655,-63.91996,-64.114105,-65.27146,-64.70787,-64.964264,-64.98514,-64.61364,-64.73519,-64.184,-64.592735,-64.14746,-63.35176,-64.13833,-64.30197,-64.17907,-63.60564,-63.877903,-64.65224,-64.11213,-64.27534,-65.111305,-64.76644,-63.502663,-64.78423,-65.7819,-64.400566,-64.38034,-63.93484,-64.19022,-64.314545,-63.35345,-64.43866,-64.8412,-64.95709,-65.041824,-64.29523,-64.17326,-63.784996,-63.639957,-63.339935,-63.389603,-64.03098,-63.754738,-64.02074,-64.21594,-64.29476,-64.95745,-64.3558,-64.03853,-63.638012,-63.402733,-65.02782,-64.30846,-63.975456,-65.053444,-63.762104,-64.367836,-64.16153,-63.366985,-64.91977,-64.344955,-64.901,-64.74658,-63.780266,-64.86635,-63.671124,-64.64509,-65.24152,-63.605576,-64.57052,-64.207565,-64.37118,-65.27941,-64.99493,-64.91492,-64.82441,-64.77522,-64.07034,-64.525444,-63.964626,-63.440872,-65.493645,-65.21973,-63.890495,-63.673565,-63.822334,-64.2423,-64.546974,-64.55806,-64.29325,-64.13007,-64.173325,-64.638245,-63.705273,-63.793617,-64.59037,-63.461464,-64.62437,-65.317795,-64.83099,-65.02848,-64.13472,-64.78261,-64.563835,-63.322685,-64.04617,-64.55934,-64.540794,-63.979404,-63.249016,-64.13856,-65.38532,-64.29463,-64.10695,-65.384056,-64.76247,-64.752655,-64.6859,-64.77341,-65.13297,-64.09644,-64.68055,-64.1956,-63.360275,-64.163,-63.568295,-64.09285,-64.59256,-64.38959,-64.54006,-63.801468,-64.67159,-64.812096,-63.429245,-63.68177,-64.39246,-64.7413,-63.959915,-63.932632,-64.92392,-64.07545,-63.49906,-63.657528,-63.500164,-64.09024,-64.23714,-63.646076,-64.8272,-66.09046,-64.8889,-64.53632,-64.759605,-63.857716,-64.298996,-65.0229,-64.15504,-63.69301,-64.6908,-64.67838,-64.39344,-64.56833,-64.14755,-65.131966,-64.59708,-63.133926,-63.946774,-63.91422,-64.11874,-64.61034,-64.99173,-65.533035,-64.31209,-63.847336,-64.5763,-64.64945,-64.49054,-64.77601,-64.36478,-63.985992,-65.34161,-65.290085,-64.49071,-64.30744,-64.42674,-65.46904,-64.61948,-64.28842,-65.36328,-64.36647,-63.742287,-64.049286,-64.5626,-64.85232,-63.915325,-64.140755,-64.56599,-63.985126,-64.15878,-64.75793,-65.19882,-63.878277,-63.022884,-64.55093,-64.71148,-64.86274,-65.0475,-64.11891,-64.73266,-64.648155,-64.09845,-64.536545,-64.3122,-64.32499,-64.13034,-64.75042,-65.129555,-63.743343,-64.351555,-63.94765,-63.08379,-64.474846,-63.82711,-64.28924,-65.88258,-65.26622,-63.869778,-63.512703,-65.00346,-63.86831,-63.280556,-64.94202,-64.19778,-65.29896,-65.86621,-63.856686,-64.33632,-64.938385,-64.24104,-63.65848,-63.343723,-63.840195,-63.83322,-63.843323,-65.48271,-65.46417,-63.821823,-63.795467,-64.264465,-64.34731,-63.68225,-63.55479,-64.1845,-64.21371,-64.69793,-64.460266,-64.1612,-64.2894,-63.416443,-63.5848,-64.20228,-63.894535,-64.53899,-65.73378,-64.79047,-63.505978,-64.08917,-64.5921,-64.7678,-64.244385,-64.47749,-65.12317,-63.776814,-64.110245,-64.311615,-63.520664,-64.10014,-64.0375,-64.74861,-64.38256,-63.57007,-64.256226,-64.232925,-64.48304,-63.944523,-64.55585,-65.75812,-64.41391,-63.727962,-63.800995,-63.80789,-63.810425,-63.947445,-64.2429,-64.17975,-64.63177,-64.39887,-63.867184,-64.14939,-64.16063,-64.25431,-64.544815,-64.66213,-64.863815,-64.79649,-64.6105,-64.37551,-64.04032,-64.21328,-63.887917,-63.97999,-64.63085,-64.10176,-64.298096,-64.193726,-64.29681,-65.38005,-64.07637,-63.787956,-64.56751,-64.09276,-64.67808,-64.258156,-63.74502,-64.31822,-64.24394,-64.46528,-63.927616,-63.428707,-64.375465,-64.743095,-64.457375,-64.37822,-63.743313,-63.475933,-64.217926,-63.950485,-63.920563,-64.30046,-63.81711,-64.51774,-65.07054,-64.48721,-64.29774,-64.33384,-63.775745,-62.819866,-63.425602,-64.661575,-64.54361,-64.34497,-65.184204,-65.0281,-63.900307,-64.48713,-64.53295,-64.26537,-65.25996,-65.08708,-64.938896,-64.9175,-64.58361,-63.975685,-63.27419,-64.91745,-65.058975,-63.847916,-64.624504,-64.27067,-64.70335,-65.09578,-64.092186,-64.67011,-64.06802,-63.580894,-64.77511,-64.81092,-64.67346,-65.19178,-64.98671,-64.45457,-65.169716,-65.19614,-64.18864,-63.780113,-63.691196,-64.37167,-64.82966,-64.60578,-63.947166,-63.445347,-64.09321,-64.35748,-64.10537,-64.83378,-65.61224,-64.72733,-64.30192,-64.70157,-63.5137,-62.63267,-63.43018,-64.47562,-64.21143,-64.1959,-64.67653,-64.0222,-64.450386,-64.40093,-64.14574,-64.829735,-64.024666,-64.321495,-65.15121,-64.6093,-64.416626,-64.509834,-63.99518,-63.697624,-64.33691,-64.132416,-63.671207,-63.692173,-63.884888,-64.415016,-64.98168,-64.96581,-64.39378,-65.155174,-64.27046,-63.358116,-65.52279,-65.024994,-63.857983,-64.7438,-65.15326,-64.68128,-63.98556,-65.05701,-64.98299,-63.82824,-64.836784,-63.98778,-63.38037,-65.34866,-64.41568,-63.687935,-64.516075,-64.25769,-64.66939,-63.694443,-63.451416,-64.27353,-63.95407,-64.87377,-64.34503,-64.04374,-65.06134,-64.04118,-63.682114,-64.50698,-65.268585,-65.16526,-64.13993,-64.18964,-65.37805,-65.97498,-64.47008,-63.86702,-65.21628,-64.41983,-63.77075,-64.842155,-64.51138,-64.76224,-64.43807,-62.87803,-63.432564,-63.592762,-64.11052,-65.112915,-64.81407,-64.689835,-63.838947,-64.18743,-64.087135,-63.294514,-64.65495,-64.682175,-64.5072,-64.38444,-63.94198,-64.8373,-64.33425,-63.41829,-64.3647,-64.84444,-63.801983,-64.111946,-64.43602,-63.948933,-64.73264,-64.3092,-64.13739,-64.73548,-64.01288
-64.3187,-64.68785,-64.24689,-64.564545,-64.343346,-64.321594,-65.37978,-64.410866,-63.330776,-63.966175,-63.74934,-63.884872,-63.960552,-63.776405,-64.52298,-64.609085,-64.039024,-64.08152,-64.655716,-63.962814,-63.58048,-64.35594,-64.261215,-64.53141,-64.3188,-64.047165,-64.4715,-63.660812,-63.98617,-64.81582,-63.95119,-64.09283,-64.799774,-64.66913,-65.19092,-65.43453,-64.84787,-64.78523,-64.50051,-63.966988,-64.452965,-64.76303,-64.44388,-64.94228,-65.01867,-65.020355,-65.41964,-64.56146,-64.49161,-64.618675,-63.94482,-64.23227,-64.524,-64.76284,-64.53471,-63.90857,-64.12189,-64.497,-64.800285,-64.838394,-64.414,-63.987167,-64.377884,-65.07695,-65.17856,-64.871735,-64.36394,-64.43613,-64.01412,-63.882904,-64.55236,-64.4602,-65.21238,-65.46839,-65.17751,-64.528366,-63.529522,-64.69424,-64.85335,-64.48267,-64.20649,-63.50395,-64.10099,-63.813652,-64.51403,-64.442894,-63.52119,-65.0439,-64.62501,-64.55596,-65.10089,-63.83143,-64.33838,-64.374985,-63.891376,-64.572044,-64.214874,-63.438095,-63.33206,-64.59651,-64.96554,-63.599102,-64.203865,-64.54939,-63.431107,-63.90453,-64.30278,-63.845833,-64.69452,-65.257805,-64.26787,-65.00531,-65.21768,-64.15515,-65.06991,-64.468094,-63.76853,-64.30365,-64.35922,-64.82289,-64.712234,-64.727745,-64.373146,-64.252716,-64.00004,-63.74622,-64.74576,-64.43549,-64.16264,-64.07749,-64.61077,-65.17002,-63.6849,-63.478504,-64.00883,-63.85208,-64.47182,-65.57646,-64.5691,-63.266968,-64.373695,-64.57005,-64.27174,-63.990715,-64.04159,-64.66771,-63.71899,-63.983475,-64.56182,-64.24771,-65.24264,-64.78408,-63.66319,-64.46914,-64.84914,-64.75573,-64.64078,-63.965652,-64.63825,-64.92788,-63.924953,-64.088036,-64.06255,-63.956837,-65.18563,-65.31482,-63.70809,-64.23094,-64.81959,-63.09063,-64.1353,-65.44697,-64.788605,-65.5937,-65.58426,-64.388855,-64.16839,-64.735,-65.19532,-64.69964,-63.655235,-63.795433,-64.39688,-63.69291,-64.10387,-64.64571,-64.45345,-65.63752,-65.04899,-63.80436,-63.84033,-63.36288,-64.14711,-65.14588,-64.26449,-63.252415,-64.16308,-64.90717,-63.939167,-64.18147,-64.459915,-64.10982,-64.22462,-63.9116,-64.59002,-64.87308,-63.96023,-64.489815,-65.012405,-64.380615,-64.32332,-64.12065,-63.248352,-63.63523,-64.29428,-64.41014,-65.254036,-64.38068,-63.190563,-64.28422,-64.05829,-63.8071,-64.55272,-64.33523,-64.65659,-64.760605,-64.38293,-63.65939,-63.32294,-64.35274,-63.967228,-63.655712,-65.02992,-65.09227,-64.29951,-64.31635,-63.859196,-63.66948,-65.03743,-64.66285,-63.714092,-64.975716,-64.9211,-64.03905,-64.415825,-64.6889,-64.50016,-64.195274,-64.25196,-64.42169,-64.82772,-65.0432,-64.30733,-63.691925,-63.229122,-63.185417,-63.855877,-63.818157,-64.15825,-65.261566,-64.76797,-64.30521,-64.72218,-63.950623,-64.11956,-65.0498,-64.06719,-63.234047,-63.653687,-64.37992,-64.54793,-64.331474,-64.70967,-64.28235,-63.89474,-64.15948,-63.742382,-64.34338,-65.40873,-65.02117,-64.12123,-64.21901,-64.65361,-64.19241,-63.887726,-64.35167,-65.27254,-65.11716,-65.24192,-66.031685,-64.62963,-64.75136,-64.80175,-63.513012,-64.49137,-63.708195,-63.652954,-65.393906,-65.472145,-64.91999,-63.99643,-64.411255,-63.630226,-63.573223,-64.82998,-63.539185,-64.86189,-65.283585,-63.850853,-64.947075,-64.27746,-64.22529,-64.71321,-63.93193,-64.897194,-64.74311,-63.915512,-64.22162,-63.951027,-64.275734,-64.47245,-63.846268,-64.06662,-64.58712,-64.603615,-65.20806,-65.59375,-64.054726,-64.0528,-64.746544,-63.537323,-64.34099,-64.674126,-63.327534,-63.870617,-64.55203,-64.701065,-64.95083,-65.24318,-64.66338,-63.644764,-64.204384,-64.864136,-64.60067,-64.21246,-64.498955,-64.31491,-63.423832,-64.52005,-65.331116,-64.618004,-64.08056,-63.885853,-65.102875,-64.90784,-63.94722,-65.02891,-65.14984,-65.14045,-64.92764,-64.01629,-64.5697,-63.87758,-63.097466,-64.380264,-65.047935,-64.99807,-64.25544,-63.660217,-64.12776,-63.85876,-63.004593,-63.405376,-64.61003,-64.73642,-64.39505,-63.95791,-64.27117,-65.27038,-63.93467,-63.300434,-64.632095,-64.73807,-65.09577,-64.91702,-63.67471,-63.4374,-63.327682,-64.22329,-64.25126,-62.95145,-65.0603,-65.39261,-63.84071,-64.48002,-63.509476,-63.840477,-64.27494,-63.832134,-64.3181,-63.821274,-64.9966,-64.57865,-63.748577,-64.987724,-64.13779,-64.014496,-64.710754,-64.750916,-64.30973,-64.84853,-65.84531,-64.102554,-64.29588,-65.51651,-64.54442,-64.49426,-64.85513,-64.74291,-64.109024,-64.2772,-64.6093,-63.848377,-64.84846,-65.652885,-64.70671,-64.43241,-63.962257,-64.1641,-64.51673,-63.39219,-64.26447,-64.85188,-63.947643,-65.03891,-64.577614,-64.01633,-65.099724,-64.09395,-64.670654,-65.708145,-63.990967,-64.05263,-64.53671,-64.340614,-64.66021,-63.85814,-64.370865,-64.60495,-63.803356,-64.83278,-64.595146,-64.22588,-64.47915,-64.3756,-64.75228,-63.564346,-64.06737,-64.40889,-63.059692,-64.85296,-64.930145,-64.05824,-64.32079,-62.739727,-63.388577,-64.20293,-63.758007,-65.31666,-64.89815,-63.487705,-63.96279,-63.951813,-64.451805,-64.266205,-63.58056,-64.80291,-64.648186,-63.91315,-63.90196,-63.994854,-64.34217,-63.28052,-63.878788,-65.306,-64.66886,-64.08042,-63.88117,-64.42457,-64.06593,-63.557243,-64.04159,-63.87826,-64.357605,-64.21158,-63.846024,-64.38599,-64.48434,-64.51163,-64.05384,-63.783787,-64.222466,-64.92661,-64.787636,-64.21362,-65.157036,-65.168304,-63.914192,-63.818157,-64.596664,-64.98922,-64.55237,-64.61311,-64.78077,-63.99212,-63.55806,-64.50163,-64.77898,-64.297195,-64.39133,-63.460472,-63.806297,-64.520294,-63.31216,-63.84531,-64.809845,-64.45902,-64.196014,-64.35822,-63.902367,-63.795235,-64.58207,-63.906895,-64.2431,-64.80963,-64.16639,-64.09767,-63.883778,-64.39807,-63.508286,-62.76909,-64.59161,-64.796936,-64.877014,-65.66659,-64.686264,-64.095,-64.01208,-64.05281,-64.78878,-63.91398,-63.465187,-63.7987,-64.04802,-65.57199,-65.07445,-64.76274,-65.13854,-64.30816,-64.54373,-64.3419,-64.83925,-64.63928,-63.957947,-64.62603,-63.948097,-64.83515,-64.83031,-63.475597,-64.677505,-64.82553,-64.918495,-65.38671,-64.31434,-63.84194,-64.67426,-64.5837,-63.88433,-64.16189,-64.26793,-65.03202,-64.34387,-63.235695,-64.585014,-64.95572,-64.99595,-64.621025,-63.903126,-63.84477,-64.53474,-65.648796,-64.735176,-64.39304,-64.836914,-64.27229,-63.949123,-65.25671,-65.42252,-63.410522,-64.8099
-65.10084,-64.35725,-65.76219,-64.423416,-64.28723,-64.22174,-63.241062,-64.15551,-64.0558,-64.56642,-65.09001,-64.70861,-63.520615,-63.38619,-65.35635,-64.62334,-63.688103,-63.70522,-63.939274,-64.83629,-64.30008,-64.25313,-64.36277,-64.85764,-65.35268,-64.69972,-63.80554,-63.510727,-64.856415,-64.04032,-63.72605,-65.370674,-64.79996,-64.71316,-64.21285,-63.472645,-64.58887,-64.962204,-64.04973,-63.947834,-64.46945,-64.13261,-64.35987,-64.230736,-64.10389,-64.35471,-63.56732,-64.31285,-64.60209,-64.03371,-64.55263,-64.10688,-63.755974,-64.595665,-64.99697,-63.79281,-64.43925,-66.00151,-64.34104,-63.87891,-64.73305,-64.61444,-64.13921,-63.661324,-64.40959,-64.02638,-64.14522,-64.636635,-63.86492,-65.227905,-64.92442,-63.93174,-64.925064,-63.931187,-63.727318,-64.991394,-65.547134,-65.1938,-64.22464,-65.06386,-65.72403,-64.58199,-64.386536,-64.99255,-64.654434,-64.51222,-64.852196,-64.255005,-64.48715,-64.91035,-64.398575,-65.04917,-64.861824,-63.86477,-63.596832,-63.886204,-65.46001,-65.18446,-64.443855,-65.56175,-64.871925,-63.953293,-64.1393,-64.21522,-64.62184,-64.71306,-64.72631,-64.131325,-63.69892,-64.08326,-64.1587,-64.6955,-64.501495,-64.65636,-65.52616,-64.260765,-63.515247,-63.83349,-63.746223,-63.837055,-63.735188,-64.17638,-63.969902,-63.805237,-64.966125,-64.19944,-63.45858,-64.207886,-63.829025,-64.16273,-64.24737,-63.685993,-64.1166,-64.305504,-64.77596,-64.157814,-64.053955,-64.627625,-63.9823,-64.93663,-64.449425,-63.99757,-64.84882,-64.059616,-65.21483,-65.37141,-64.76519,-65.91158,-64.779335,-64.06991,-64.583145,-64.35669,-65.113686,-65.13845,-63.883224,-63.72658,-63.90053,-64.47843,-65.22862,-64.10619,-63.940483,-65.00864,-63.99107,-63.420578,-64.82592,-64.98867,-63.91748,-64.62127,-65.10511,-63.897377,-64.19631,-64.801094,-64.31754,-63.668644,-63.732014,-64.23629,-62.96146,-63.483566,-64.93184,-64.2253,-64.98821,-64.59662,-63.92732,-64.744804,-64.26337,-64.77197,-64.69808,-64.40438,-64.92745,-64.34931,-65.09413,-65.305046,-64.135216,-64.32607,-65.03954,-65.237854,-64.36469,-63.818905,-64.89887,-65.18115,-63.773853,-63.722343,-64.63745,-64.24933,-65.53271,-65.77056,-63.116932,-64.41708,-64.981445,-63.580875,-65.19178,-64.58591,-64.68159,-65.73874,-64.341705,-64.8634,-64.518486,-63.46934,-64.658905,-64.94049,-64.57152,-64.79114,-64.06675,-63.717304,-64.83058,-64.919815,-65.06172,-65.10303,-63.85514,-64.07643,-64.76197,-64.7026,-64.91072,-64.84804,-64.536865,-64.57401,-64.72789,-63.840706,-63.376938,-64.563896,-64.915146,-64.28538,-63.863495,-63.777924,-64.24845,-64.611916,-64.31903,-64.53689,-64.71205,-63.778194,-64.03434,-63.865814,-63.77999,-65.21355,-64.38861,-63.98365,-64.67566,-64.48281,-64.80455,-65.291664,-64.97342,-63.905407,-64.55264,-64.50387,-63.457493,-65.05461,-65.59289,-63.733307,-63.44906,-65.57581,-65.470726,-63.73805,-64.69733,-64.68725,-63.500957,-64.24882,-65.03811,-65.09848,-65.69421,-65.68161,-64.31513,-64.51071,-64.9581,-64.155685,-64.5847,-64.912865,-64.70626,-64.81422,-64.97597,-65.087906,-64.66275,-64.40376,-64.293015,-65.026115,-65.728195,-64.85223,-64.55105,-64.94098,-64.59186,-63.588615,-63.648438,-64.2186,-63.925602,-64.913376,-65.51873,-64.39401,-64.035545,-64.63111,-64.68081,-63.879757,-64.29996,-65.100136,-64.83782,-65.16097,-64.92486,-63.962032,-64.55422,-64.767624,-64.13083,-64.62913,-64.19278,-63.944004,-64.830086,-64.22649,-64.66878,-65.56601,-64.87815,-64.92418,-64.756386,-64.07539,-63.762108,-63.402958,-63.325974,-64.09625,-64.88073,-64.56219,-65.098625,-65.246086,-64.27153,-64.50113,-63.85859,-64.086174,-65.71149,-65.062904,-64.69344,-64.93121,-63.848682,-63.46095,-63.97055,-63.618134,-63.414894,-64.37278,-64.26762,-63.81473,-64.63576,-64.613205,-63.8533,-64.51973,-65.16543,-64.16407,-64.398026,-65.27767,-64.34571,-64.01074,-64.43573,-64.293,-64.61808,-65.194115,-64.41797,-64.73072,-65.57077,-63.846924,-64.15469,-65.14293,-64.862686,-65.25081,-64.20867,-64.030464,-64.84976,-65.67121,-64.935135,-63.43135,-65.095604,-64.89411,-64.07161,-64.619194,-63.89035,-64.28985,-63.96878,-64.42063,-65.46679,-64.247,-64.41486,-64.00078,-63.20177,-64.20829,-63.722134,-63.246044,-63.564503,-64.1236,-65.032524,-63.788456,-63.273476,-65.07556,-65.15164,-64.13564,-64.16798,-64.39492,-64.27783,-64.5582,-64.925766,-64.5141,-64.158615,-64.61691,-64.65899,-64.06164,-64.54072,-64.55936,-64.146355,-64.920105,-64.805565,-64.824585,-64.39083,-63.581985,-64.618805,-63.726284,-62.917526,-64.10577,-64.26389,-64.800026,-65.09922,-64.69998,-64.11214,-63.78516,-64.26744,-63.88167,-63.481834,-64.26511,-65.33466,-65.15571,-65.00003,-65.16283,-63.738907,-63.858356,-64.93033,-64.11123,-63.84714,-64.71043,-64.31686,-63.708065,-65.006805,-64.778275,-63.34376,-63.60668,-63.73311,-64.07884,-64.2678,-64.175476,-65.27757,-65.41061,-64.44418,-64.15159,-64.019135,-64.00596,-64.27379,-64.37495,-64.39196,-64.59592,-65.22332,-65.657,-65.01418,-63.843597,-63.329174,-63.695507,-63.565887,-63.863102,-64.81243,-64.44826,-64.849785,-64.2517,-62.867443,-64.240585,-63.867184,-63.333176,-64.36028,-64.297806,-64.65767,-64.30469,-65.18316,-65.45644,-63.17642,-63.843216,-64.599434,-64.33523,-64.92418,-64.61827,-64.91479,-64.3653,-62.79437,-63.85504,-65.21995,-64.01359,-64.021355,-65.03322,-63.988262,-63.87562,-64.32779,-64.67527,-65.31267,-64.25273,-63.729683,-63.72473,-64.024574,-65.04466,-64.770615,-64.2948,-63.431644,-63.350235,-64.407166,-64.33479,-64.1541,-63.23225,-63.51612,-65.41944,-64.788216,-63.796818,-63.778065,-63.909214,-64.37835,-64.13265,-63.934456,-63.82691,-64.5726,-65.16899,-64.05817,-64.31052,-64.68489,-63.69966,-63.737946,-64.01429,-63.77531,-64.68585,-64.75095,-63.385597,-64.37244,-64.54208,-63.874954,-64.54724,-64.3573,-64.474724,-63.166107,-64.03306,-65.2975,-62.78992,-63.896675,-64.19255,-64.293945,-65.32553,-63.194565,-64.5461,-64.50464,-63.921455,-65.40707,-64.29226,-65.01034,-64.57845,-63.81477,-64.52714,-64.13414,-64.73877,-64.34002,-64.26257,-64.61857,-64.72515,-65.274445,-64.23628,-64.06037,-64.744156,-64.51331,-64.35788,-64.418015,-64.43728,-64.24751,-63.925747,-64.08611,-63.871223,-62.9748,-64.172005,-64.952934,-63.879128,-64.17627,-64.82217,-65.20402,-64.99947,-64.29575,-63.980343,-64.387436,-64.82153,-64.47412,-64.443886
