SampleData
-2868.3716,-11244.62,-16902.148,-16517.182,-18418.117,-18321.54,-16464.121,-18483.406,-17741.014,-17983.803,-19388.002,-18670.041,-20175.754,-20084.896,-20349.83,-21053.25,-20375.006,-20970.656,-20264.752,-20081.48,-19795.191,-18978.182,-18968.855,-18177.908,-18132.639,-17869.602,-17734.648,-18034.328,-17996.875,-18540.363,-18775.77,-19251.05,-19704.418,-19951.367,-20369.934,-20400.97,-20536.79,-20422.857,-20204.193,-19974.686,-19538.88,-19226.865,-18800.459,-18488.408,-18238.666,-18057.742,-18062.354,-18092.094,-18300.455,-18554.107,-18880.033,-19248.004,-19564.924,-19883.355,-20095.943,-20246.967,-20277.418,-20199.402,-20050.244,-19794.416,-19511.693,-19189.006,-18885.943,-18622.957,-18404.793,-18291.037,-18255.955,-18317.295,-18463.547,-18678.748,-18944.154,-19219.014,-19496.354,-19736.928,-19919.914,-20027.197,-20048.387,-20001.705,-19878.764,-19684.041,-19449.775,-19204.623,-18962.078,-18744.408,-18574.59,-18465.816,-18437.562,-18489.82,-18606.092,-18774.127,-18982.186,-19200.44,-19410.77,-19610.475,-19759.143,-19837.074,-19859.781,-19824.861,-19727.646,-19579.271,-19408.531,-19224.002,-19030.68,-18863.838,-18741.021,-18666.182,-18647.623,-18682.074,-18767.123,-18893.271,-19041.988,-19208.393,-19375.441,-19516.275,-19623.547,-19689.873,-19706.03,-19674.557,-19603.82,-19492.943,-19354.297,-19214.55,-19075.662,-18949.816,-18859.645,-18806.293,-18790.615,-18813.938,-18875.348,-18970.414,-19085.113,-19200.209,-19310.4,-19414.5,-19495.18,-19546.422,-19562.404,-19539.873,-19488.947,-19409.137,-19315.848,-19221.156,-19123.371,-19037.691,-18971.934,-18932.377,-18926.521,-18945.29,-18985.576,-19054.52,-19133.752,-19211.36,-19296.36,-19362.998,-19407.236,-19443.365,-19457.166,-19450.082,-19416.068,-19359.799,-19300.492,-19231.059,-19161.893,-19107.855,-19062.139,-19036.3,-19036.904,-19046.957,-19072.549,-19109.182,-19144.154,-19191.434,-19239.203,-19279.906,-19317.95,-19336.955,-19339.242,-19331.66,-19311.06,-19283.715,-19257.455,-19226.809,-19189.504,-19162.527,-19148.77,-19136.178,-19123.932,-19123.268,-19139.623,-19159.988,-19182.816,-19207.803,-19221.42,-19234.002,-19252.422,-19257.945,-19253.285,-19255.908,-19254.87,-19241.182,-19231.996,-19223.914,-19209.455,-19201.602,-19197.412,-19193.861,-19190.58,-19183.373,-19184.766,-19193.81,-19197.87,-19197.055,-19196.066,-19197.447,-19200.875,-19207.68,-19207.676,-19202.895,-19203.71,-19200.658,-19205.17,-19219.92,-19226.396,-19232.281,-19241.191,-19242.846,-19240.348,-19237.834,-19229.223,-19222.078,-19216.35,-19201.232,-19187.064,-19178.117,-19179.846,-19181.584,-19167.498,-19166.465,-19185.633,-19203.475,-19217.143,-19235.986,-19255.773,-19265.752,-19277.465,-19284.639,-19278.11,-19267.057,-19248.83,-19230.682,-19213.996,-19194.316,-19179.4,-19164.166,-19146.06,-19131.877,-19124.854,-19127.799,-19140.291,-19158.336,-19186.506,-19219.432,-19237.672,-19261.318,-19293.56,-19301.576,-19300.768,-19299.617,-19283.113,-19258.053,-19232.4,-19207.502,-19182.66,-19157.941,-19132.725,-19120.287,-19118.115,-19117.445,-19133.844,-19156.584,-19181.666,-19210.902,-19235.582,-19266.818,-19292.78,-19305.93,-19315.045,-19310.373,-19292.465,-19268.895,-19234.674,-19195.484,-19165.787,-19140.541,-19119.85,-19108.242,-19104.65,-19115.436,-19131.668,-19153.326,-19186.309,-19219.04,-19252.506,-19280.078,-19300.033,-19323.832,-19330.33,-19317.475,-19304.734,-19283.062,-19253.814,-19221.014,-19184.988,-19151.766,-19121.645,-19106.984,-19107.186,-19118.984,-19143.01,-19168.72,-19202.602,-19239.225,-19270.39,-19301.031,-19325.125,-19338.91,-19340.123,-19332.895,-19315.223,-19282.033,-19245.318,-19208.02,-19172.748,-19147.76,-19124.617,-19103.525,-19098.588,-19106.543,-19124.072,-19151.746,-19178.27,-19204.975,-19241.443,-19280.723,-19314.14,-19340.271,-19347.629,-19337.238,-19321.465,-19294.0,-19261.13,-19224.305,-19180.166,-19150.635,-19126.133,-19101.08,-19099.166,-19107.514,-19119.871,-19145.201,-19174.363,-19207.768,-19243.834,-19273.596,-19292.732,-19307.625,-19317.398,-19309.354,-19296.686,-19277.924,-19246.295,-19218.477,-19186.021,-19153.271,-19133.09,-19119.287,-19115.258,-19118.322,-19131.836,-19157.64,-19184.396,-19212.887,-19241.879,-19269.879,-19296.488,-19309.85,-19308.996,-19305.588,-19296.064,-19276.81,-19257.28,-19230.244,-19195.0,-19169.87,-19150.01,-19134.256,-19132.959,-19136.996,-19147.164,-19165.584,-19187.773,-19217.932,-19243.947,-19263.178,-19282.908,-19295.043,-19298.941,-19290.06,-19271.648,-19255.252,-19234.812,-19209.658,-19182.656,-19158.459,-19140.588,-19125.455,-19119.828,-19124.69,-19136.45,-19157.498,-19183.11,-19205.86,-19225.373,-19245.557,-19272.088,-19298.408,-19299.557,-19289.46,-19288.217,-19271.877,-19245.744,-19222.37,-19201.582,-19187.639,-19171.553,-19160.904,-19154.863,-19153.705,-19166.072,-19177.99,-19196.71,-19222.752,-19241.035,-19258.45,-19271.832,-19280.133,-19288.5,-19287.02,-19277.453,-19266.719,-19253.203,-19235.957,-19214.604,-19198.006,-19185.896,-19174.04,-19171.975,-19178.732,-19192.543,-19207.232,-19216.754,-19232.96,-19251.63,-19264.746,-19272.2,-19274.59,-19278.357,-19272.861,-19263.395,-19258.658,-19238.898,-19221.49,-19213.055,-19194.148,-19184.8,-19182.342,-19179.691,-19187.258,-19186.154,-19182.139,-19196.13,-19213.248,-19226.344,-19244.322,-19255.91,-19258.023,-19258.832,-19253.219,-19244.564,-19235.562,-19223.338,-19207.96,-19196.49,-19192.018,-19183.977,-19182.494,-19187.184,-19184.736,-19185.229,-19194.307,-19211.938,-19222.93,-19221.357,-19227.93,-19239.783,-19244.568,-19244.09,-19244.084,-19243.57,-19237.873,-19228.705,-19219.717,-19213.744,-19205.857,-19192.182,-19177.426,-19173.812,-19181.777,-19188.244,-19196.035,-19200.973,-19204.254,-19214.254,-19219.408,-19226.398,-19239.287,-19243.498,-19239.852,-19236.066,-19233.771,-19229.21,-19220.312,-19209.777,-19202.557,-19195.477,-19187.158,-19184.66,-19187.346,-19194.99,-19201.744,-19203.63,-19208.256,-19216.701,-19230.55,-19243.828,-19248.229,-19248.488,-19243.373,-19237.385,-19237.836,-19236.973,-19230.473,-19217.574,-19207.555,-19202.19,-19193.05,-19194.865,-19200.068,-19194.166,-19188.771,-19190.338,-19197.299,-19197.475,-19203.943,-19220.379,-19224.568,-19224.562,-19220.43,-19218.156,-19223.275,-19220.543,-19215.818,-19213.975,-19214.125,-19210.09,-19206.203,-19214.553,-19223.129,-19219.691,-19206.672,-19209.594,-19220.928,-19216.799,-19217.203,-19218.959,-19216.312,-19213.695,-19211.3,-19217.246,-19215.352,-19210.158,-19213.822,-19214.723,-19213.041,-19208.814,-19211.553,-19221.63,-19221.176,-19215.617,-19211.436,-19210.273,-19212.766,-19212.357,-19215.17,-19218.97,-19222.736,-19227.793,-19223.312,-19224.383,-19229.395,-19223.096,-19217.736,-19211.457,-19207.74,-19204.182,-19197.936,-19207.414,-19214.82,-19211.705,-19211.754,-19210.5,-19208.898,-19207.658,-19209.162,-19210.697,-19210.55,-19211.541,-19210.586,-19214.098,-19216.168,-19215.186,-19216.582,-19213.172,-19210.547,-19208.924,-19208.387,-19212.277,-19214.08,-19213.512,-19214.355,-19220.06,-19223.363,-19224.756,-19226.074,-19222.39,-19222.242,-19220.877,-19218.93,-19222.041,-19221.973,-19217.498,-19214.732,-19220.129,-19219.793,-19214.191,-19214.898,-19215.441,-19220.803,-19218.41,-19208.957,-19213.848,-19215.371,-19213.125,-19219.617,-19221.088,-19221.484,-19222.295,-19213.15,-19208.508,-19211.17,-19206.863,-19205.254,-19206.79,-19203.85,-19205.898,-19204.14,-19200.523,-19212.479,-19224.166,-19221.096,-19212.969,-19210.896,-19209.008,-19202.705,-19204.898,-19210.793,-19209.346,-19203.605,-19200.324,-19206.152,-19209.951,-19207.287,-19211.44,-19216.842,-19217.957,-19217.762,-19216.83,-19220.904,-19224.23,-19221.453,-19219.389,-19219.146,-19210.54,-19196.805,-19199.402,-19207.736,-19205.262,-19203.135,-19202.998,-19203.06,-19207.297,-19209.629,-19206.572,-19208.904,-19210.564,-19205.564,-19211.127,-19218.172,-19214.775,-19210.414,-19206.129,-19208.5,-19213.076,-19206.152,-19201.9,-19205.385,-19201.734,-19197.336,-19201.361,-19204.275,-19201.693,-19200.85,-19204.031,-19207.129,-19207.45,-19207.064,-19210.682,-19213.312,-19211.162,-19210.936,-19209.926,-19203.938,-19197.74,-19194.748,-19195.236,-19197.594,-19201.648,-19204.936,-19203.248,-19198.387,-19193.504,-19194.1,-19203.506,-19212.486,-19212.928,-19211.02,-19212.846,-19212.58,-19209.941,-19207.604,-19202.123,-19202.633,-19209.035,-19206.422,-19203.162,-19204.266,-19201.393,-19204.006,-19208.047,-19203.734,-19203.018,-19206.428,-19212.258,-19215.934,-19208.482,-19207.05,-19212.857,-19210.105,-19205.818,-19204.37,-19202.594,-19199.938,-19199.158,-19199.76,-19198.78,-19203.256,-19205.932,-19198.936,-19197.588,-19203.838,-19205.693,-19205.738,-19205.756,-19201.73,-19199.79,-19196.643,-19193.9,-19200.078,-19199.934,-19195.58,-19197.154,-19198.395,-19199.781,-19198.367,-19198.771,-19200.033,-19196.297,-19196.475,-19201.486,-19210.121,-19215.527,-19217.398,-19220.78,-19220.953,-19219.287,-19213.379,-19213.096,-19217.572,-19213.707,-19212.105,-19213.451,-19213.078,-19208.64,-19206.4,-19212.355,-19214.902,-19214.885,-19214.113,-19212.8,-19213.186,-19214.096,-19212.986,-19208.959,-19210.176,-19207.74,-19203.588,-19210.139,-19210.328,-19205.998,-19207.96,-19205.582,-19203.082,-19206.996,-19207.123,-19203.857,-19201.99,-19196.477,-19196.918,-19206.654,-19209.86,-19208.494,-19209.91,-19212.021,-19212.488,-19209.324,-19207.816,-19209.7,-19209.803,-19207.727,-19201.277,-19198.125,-19204.863,-19205.213,-19200.412,-19204.662,-19209.916,-19205.883,-19197.24,-19195.34,-19197.635,-19198.906,-19203.807,-19208.057,-19208.975,-19209.918,-19211.828,-19215.643,-19214.729,-19209.219,-19205.072,-19202.135,-19202.55,-19200.1,-19195.223,-19193.707,-19193.283,-19195.812,-19192.516,-19187.645,-19192.258,-19196.768,-19198.766,-19199.186,-19201.758,-19204.201,-19203.258,-19208.807,-19214.152,-19212.748,-19206.695,-19198.865,-19199.732,-19204.938,-19203.451,-19202.61,-19209.6,-19210.475,-19203.377,-19202.094,-19200.236,-19199.307,-19205.664,-19204.62,-19203.592,-19215.016,-19218.45,-19212.92,-19210.076,-19203.129,-19202.537,-19212.74,-19216.559,-19212.146,-19206.479,-19200.453,-19198.115,-19199.441,-19196.395,-19194.824,-19196.365,-19199.107,-19206.988,-19209.332,-19205.354,-19199.154,-19198.01,-19203.605,-19201.957,-19200.992,-19202.26,-19198.773,-19194.717,-19196.818,-19201.994,-19199.77,-19200.688,-19200.08,-19195.508,-19196.223,-19193.895,-19193.555,-19194.09,-19196.24,-19200.693,-19195.836,-19193.62,-19198.031,-19199.393,-19198.766,-19197.133,-19198.47,-19203.646,-19206.254,-19204.773,-19204.043,-19204.654,-19203.848,-19204.99,-19205.49,-19198.959,-19193.76,-19199.738,-19205.365,-19202.02,-19198.676,-19196.766,-19199.92,-19204.283,-19201.447,-19196.965,-19193.266,-19194.395,-19193.477,-19190.549,-19191.357,-19187.145,-19187.201,-19193.064,-19195.701,-19197.611,-19201.86,-19206.594,-19203.12,-19198.734,-19199.512,-19195.096,-19189.758,-19193.135,-19198.992,-19199.598,-19194.676,-19189.375,-19190.084,-19193.686,-19197.316,-19196.447,-19191.639,-19192.814,-19196.514,-19200.578,-19202.56,-19204.338,-19211.766,-19213.277,-19212.023,-19213.955,-19211.86,-19210.879,-19208.926,-19203.889,-19204.479,-19202.03,-19197.951,-19197.6,-19190.951,-19192.469,-19198.635,-19196.154,-19197.613,-19196.684,-19197.043,-19200.385,-19200.186,-19209.693,-19215.318,-19208.922,-19205.674,-19206.979,-19207.145,-19200.629,-19200.238,-19207.344,-19205.65,-19203.537,-19204.602,-19204.482,-19209.25,-19212.717,-19208.223,-19207.73,-19207.422,-19197.361,-19197.184,-19198.547,-19191.518,-19196.203,-19198.045,-19197.06,-19202.396,-19201.734,-19207.766,-19215.127,-19212.152,-19210.053,-19208.633,-19212.518,-19215.338,-19206.332,-19207.713,-19216.477,-19210.969,-19209.07,-19215.682,-19216.514,-19214.4,-19210.266,-19212.213,-19218.654,-19213.836,-19211.111,-19217.658,-19219.744,-19217.836,-19211.605,-19205.447,-19208.994,-19212.137,-19207.682,-19204.33,-19204.188,-19200.799,-19198.482,-19200.291,-19201.137,-19204.207,-19206.48,-19207.654,-19209.156,-19205.078,-19200.254,-19198.22,-19201.83,-19203.258,-19199.715,-19204.564,-19206.668,-19203.633,-19204.016,-19207.357,-19211.43,-19206.094,-19201.852,-19201.807,-19198.773,-19199.805,-19200.066,-19199.633,-19201.547,-19201.412,-19198.75,-19197.996,-19199.586,-19197.2,-19195.059,-19194.541,-19193.078,-19191.182,-19191.773,-19198.113,-19197.451,-19194.443,-19197.05,-19194.594,-19195.887,-19196.273,-19190.668,-19190.809,-19190.174,-19191.285,-19192.404,-19191.172,-19193.62,-19194.098,-19197.975,-19201.691,-19200.057,-19200.123,-19201.59,-19204.785,-19207.283,-19211.88,-19214.129,-19204.055,-19198.95,-19202.621,-19198.773,-19195.371,-19197.635,-19199.266,-19202.662,-19202.824,-19196.045,-19192.365,-19192.732,-19194.482,-19198.605,-19192.367,-19181.725,-19186.463,-19194.85,-19193.914,-19190.848,-19193.605,-19195.523,-19188.904,-19187.008,-19191.463,-19190.729,-19191.41,-19189.29,-19184.635,-19195.143,-19206.105,-19207.309,-19208.797,-19206.242,-19200.16,-19197.322,-19197.553,-19193.062,-19189.586,-19195.525,-19196.883,-19191.033,-19187.312,-19186.691,-19191.562,-19202.299,-19207.033,-19199.945
-19196.85,-19201.646,-19203.959,-19205.459,-19205.572,-19202.871,-19198.998,-19195.219,-19196.936,-19201.508,-19204.299,-19202.648,-19197.93,-19199.998,-19204.408,-19199.996,-19193.105,-19193.016,-19194.49,-19194.666,-19199.273,-19204.139,-19201.27,-19195.836,-19196.314,-19197.68,-19198.275,-19197.87,-19192.756,-19194.0,-19198.309,-19199.098,-19201.688,-19197.734,-19193.268,-19196.117,-19195.514,-19192.287,-19191.383,-19191.994,-19198.422,-19205.03,-19200.014,-19194.68,-19198.723,-19202.121,-19197.8,-19195.848,-19200.523,-19196.049,-19191.754,-19195.395,-19192.912,-19191.861,-19193.713,-19194.28,-19196.602,-19192.027,-19188.879,-19193.203,-19190.734,-19190.701,-19190.965,-19184.3,-19186.012,-19185.928,-19183.564,-19187.719,-19192.648,-19196.678,-19192.387,-19186.895,-19189.615,-19197.553,-19195.584,-19187.746,-19196.979,-19204.07,-19201.947,-19200.76,-19196.617,-19196.182,-19197.125,-19194.375,-19190.604,-19193.723,-19194.969,-19188.68,-19191.416,-19193.69,-19189.186,-19187.107,-19186.852,-19184.922,-19180.043,-19180.67,-19182.127,-19181.908,-19183.725,-19182.797,-19186.303,-19186.229,-19182.98,-19187.566,-19187.09,-19187.773,-19190.686,-19187.385,-19185.572,-19187.371,-19191.438,-19188.992,-19185.244,-19186.666,-19184.03,-19184.463,-19190.707,-19190.29,-19184.725,-19188.592,-19195.64,-19192.129,-19187.182,-19189.172,-19194.564,-19194.57,-19191.586,-19195.447,-19201.818,-19206.387,-19207.885,-19207.264,-19207.543,-19208.361,-19209.896,-19207.54,-19205.2,-19206.02,-19200.113,-19191.48,-19188.072,-19188.79,-19188.787,-19187.87,-19194.201,-19201.975,-19201.621,-19196.916,-19190.42,-19183.469,-19180.008,-19179.951,-19184.785,-19190.701,-19188.2,-19187.975,-19194.152,-19192.549,-19187.027,-19186.398,-19190.414,-19197.379,-19200.057,-19193.143,-19190.203,-19193.947,-19189.123,-19189.002,-19196.162,-19194.895,-19193.756,-19192.844,-19194.63,-19203.438,-19203.646,-19198.744,-19197.637,-19197.244,-19197.746,-19193.965,-19189.945,-19192.256,-19195.732,-19196.64,-19197.195,-19203.016,-19199.105,-19189.59,-19194.004,-19195.328,-19196.89,-19198.28,-19193.121,-19196.781,-19198.031,-19195.99,-19193.8,-19193.29,-19197.17,-19194.469,-19196.979,-19199.951,-19195.754,-19193.623,-19190.666,-19190.58,-19190.193,-19189.686,-19191.895,-19190.451,-19192.354,-19196.412,-19195.646,-19195.984,-19195.027,-19192.041,-19192.889,-19193.145,-19197.72,-19205.479,-19200.285,-19193.352,-19196.566,-19200.93,-19201.79,-19196.664,-19192.275,-19194.193,-19194.664,-19191.225,-19186.36,-19183.191,-19186.19,-19194.205,-19196.08,-19189.848,-19188.553,-19188.877,-19184.08,-19184.293,-19184.523,-19179.533,-19183.545,-19187.064,-19183.031,-19184.83,-19184.379,-19182.455,-19184.676,-19185.434,-19190.547,-19195.473,-19198.49,-19204.545,-19202.71,-19191.143,-19186.604,-19196.67,-19200.928,-19194.63,-19194.715,-19194.701,-19194.04,-19196.896,-19197.668,-19193.152,-19183.746,-19184.99,-19189.834,-19188.752,-19192.012,-19192.9,-19189.502,-19187.844,-19192.072,-19196.518,-19197.035,-19197.521,-19194.455,-19195.502,-19198.008,-19194.873,-19191.834,-19187.55,-19185.203,-19184.566,-19180.19,-19177.326,-19181.584,-19183.299,-19183.492,-19189.545,-19187.088,-19182.693,-19181.066,-19176.69,-19180.41,-19182.611,-19183.15,-19185.447,-19183.396,-19182.252,-19179.963,-19181.139,-19183.617,-19184.92,-19190.166,-19190.393,-19188.25,-19187.467,-19183.67,-19180.45,-19179.816,-19179.305,-19177.932,-19179.145,-19180.16,-19179.74,-19180.832,-19177.266,-19176.625,-19181.646,-19179.193,-19175.809,-19179.291,-19189.604,-19194.979,-19189.143,-19190.93,-19195.035,-19193.113,-19194.96,-19196.703,-19193.13,-19187.422,-19188.264,-19192.936,-19197.342,-19203.703,-19204.283,-19202.83,-19204.967,-19206.445,-19205.684,-19204.217,-19204.566,-19202.06,-19198.18,-19194.766,-19189.342,-19187.354,-19188.352,-19188.77,-19187.148,-19184.238,-19180.463,-19177.344,-19179.895,-19179.873,-19175.582,-19176.193,-19178.982,-19181.271,-19181.3,-19181.455,-19182.133,-19177.453,-19174.32,-19172.918,-19176.203,-19184.547,-19178.102,-19173.06,-19181.62,-19180.857,-19175.508,-19177.598,-19181.06,-19174.64,-19168.318,-19178.38,-19184.69,-19181.373,-19180.793,-19180.346,-19181.473,-19178.309,-19173.129,-19175.91,-19180.39,-19181.164,-19175.693,-19170.998,-19173.559,-19174.014,-19169.8,-19171.31,-19175.537,-19170.322,-19167.576,-19170.69,-19168.973,-19171.658,-19177.666,-19178.846,-19180.197,-19183.844,-19184.64,-19184.918,-19191.947,-19196.082,-19192.797,-19189.463,-19187.525,-19185.93,-19182.41,-19182.285,-19184.076,-19184.406,-19188.908,-19191.395,-19190.377,-19189.826,-19188.951,-19189.164,-19189.52,-19190.545,-19187.482,-19185.352,-19189.578,-19182.36,-19174.002,-19176.562,-19175.232,-19174.193,-19172.371,-19170.686,-19171.979,-19166.984,-19165.654,-19167.287,-19169.768,-19174.232,-19169.314,-19170.787,-19177.725,-19172.387,-19167.701,-19169.428,-19170.975,-19168.22,-19167.979,-19171.297,-19168.982,-19166.885,-19166.314,-19169.867,-19174.398,-19171.193,-19168.314,-19168.543,-19170.727,-19173.701,-19176.287,-19174.928,-19170.365,-19169.145,-19167.697,-19167.4,-19163.523,-19156.688,-19158.854,-19162.791,-19165.805,-19168.375,-19164.797,-19161.943,-19168.516,-19176.182,-19174.031,-19171.314,-19171.574,-19169.527,-19167.275,-19167.006,-19173.477,-19173.344,-19165.77,-19173.707,-19179.053,-19174.004,-19178.604,-19185.27,-19190.338,-19190.074,-19186.05,-19190.377,-19193.312,-19192.021,-19188.441,-19185.014,-19184.936,-19182.016,-19184.73,-19189.12,-19184.623,-19180.734,-19178.66,-19180.885,-19186.842,-19186.807,-19183.854,-19181.91,-19185.053,-19185.24,-19177.803,-19179.736,-19181.574,-19179.562,-19181.734,-19180.271,-19179.99,-19176.39,-19176.64,-19183.227,-19177.182,-19175.777,-19177.752,-19172.332,-19174.309,-19175.643,-19173.445,-19172.975,-19177.041,-19180.982,-19179.26,-19184.533,-19183.78,-19177.684,-19179.627,-19181.684,-19187.62,-19182.621,-19173.322,-19176.299,-19175.18,-19174.451,-19174.133,-19172.08,-19174.145,-19176.389,-19178.098,-19175.398,-19170.123,-19166.982,-19172.32,-19179.195,-19176.598,-19176.209,-19174.213,-19169.852,-19171.09,-19170.977,-19172.797,-19173.516,-19169.05,-19167.889,-19169.908,-19171.732,-19173.623,-19175.56,-19175.006,-19174.662,-19177.518,-19176.86,-19176.82,-19180.07,-19176.678,-19174.908,-19173.355,-19168.873,-19176.617,-19180.49,-19177.72,-19180.807,-19182.375,-19188.363,-19188.244,-19181.975,-19184.33,-19184.342,-19184.63,-19186.854,-19185.285,-19181.53,-19179.133,-19181.791,-19185.074,-19187.809,-19180.555,-19171.914,-19180.617,-19184.42,-19176.799,-19175.336,-19178.506,-19175.443,-19169.312,-19174.744,-19179.13,-19177.885,-19183.734,-19184.855,-19182.785,-19185.283,-19183.111,-19178.043,-19180.299,-19180.117,-19171.574,-19175.797,-19181.566,-19177.805,-19178.377,-19178.404,-19182.402,-19182.914,-19177.898,-19180.494,-19180.24,-19179.928,-19182.742,-19184.377,-19183.512,-19182.227,-19187.117,-19187.791,-19185.588,-19185.555,-19182.928,-19181.021,-19176.385,-19174.535,-19180.549,-19181.504,-19176.496,-19176.414,-19185.203,-19194.816,-19195.537,-19193.068,-19194.389,-19196.17,-19195.146,-19188.42,-19182.318,-19183.984,-19187.732,-19192.768,-19196.008,-19196.018,-19199.898,-19199.012,-19193.26,-19191.172,-19187.488,-19187.441,-19190.479,-19188.873,-19188.96,-19193.838,-19198.967,-19197.133,-19190.203,-19186.965,-19187.916,-19188.182,-19189.35,-19191.85,-19189.424,-19190.656,-19193.092,-19188.773,-19189.404,-19191.8,-19192.11,-19192.443,-19193.68,-19198.62,-19197.803,-19190.863,-19193.117,-19202.873,-19196.016,-19186.992,-19195.965,-19195.227,-19191.875,-19194.365,-19191.729,-19196.805,-19197.922,-19194.8,-19195.674,-19195.717,-19199.46,-19195.938,-19191.393,-19194.48,-19196.014,-19193.83,-19190.797,-19195.482,-19194.578,-19189.393,-19194.492,-19195.328,-19192.83,-19191.65,-19191.627,-19193.154,-19190.562,-19190.615,-19192.168,-19193.268,-19193.156,-19188.447,-19187.447,-19189.229,-19191.844,-19192.059,-19187.432,-19190.094,-19193.742,-19191.873,-19190.666,-19187.63,-19188.332,-19189.814,-19189.348,-19192.621,-19191.31,-19187.896,-19186.457,-19188.121,-19191.172,-19189.395,-19189.277,-19184.658,-19177.664,-19176.787,-19176.334,-19179.621,-19182.432,-19180.064,-19173.27,-19171.436,-19180.219,-19182.451,-19181.271,-19183.691,-19184.852,-19187.146,-19187.309,-19184.516,-19180.209,-19178.37,-19181.828,-19187.32,-19187.7,-19179.004,-19177.912,-19182.855,-19180.684,-19178.342,-19176.383,-19179.652,-19187.824,-19189.764,-19185.69,-19182.771,-19182.285,-19177.844,-19178.215,-19183.264,-19185.102,-19185.326,-19180.14,-19178.01,-19176.676,-19176.553,-19180.463,-19174.648,-19174.754,-19177.777,-19172.674,-19178.578,-19182.615,-19176.795,-19179.87,-19189.008,-19193.39,-19192.63,-19186.783,-19181.166,-19182.646,-19180.805,-19173.62,-19170.404,-19170.596,-19175.395,-19177.443,-19176.84,-19180.53,-19175.82,-19172.29,-19178.447,-19175.947,-19171.309,-19172.352,-19174.742,-19176.273,-19171.252,-19170.588,-19175.904,-19176.451,-19176.67,-19174.812,-19173.803,-19179.166,-19183.674,-19184.996,-19181.9,-19179.328,-19178.889,-19179.584,-19186.45,-19190.299,-19188.963,-19189.256,-19193.098,-19193.39,-19190.643,-19195.717,-19196.203,-19198.53,-19199.723,-19185.342,-19184.709,-19192.031,-19190.254,-19187.588,-19186.102,-19187.459,-19179.12,-19171.943,-19179.527,-19187.953,-19191.775,-19188.777,-19185.143,-19186.082,-19189.13,-19193.357,-19191.857,-19185.91,-19183.564,-19182.275,-19181.81,-19184.0,-19181.596,-19182.135,-19187.465,-19182.586,-19176.701,-19176.277,-19172.104,-19166.887,-19170.412,-19183.78,-19187.354,-19177.777,-19175.256,-19175.832,-19174.824,-19178.15,-19178.516,-19175.697,-19177.217,-19180.45,-19179.176,-19179.43,-19182.654,-19181.596,-19180.256,-19181.996,-19186.78,-19187.275,-19179.861,-19174.205,-19173.242,-19174.94,-19174.926,-19172.842,-19172.08,-19172.287,-19170.479,-19169.611,-19175.178,-19178.553,-19179.045,-19177.863,-19171.355,-19170.59,-19174.936,-19175.805,-19172.682,-19168.105,-19165.775,-19165.2,-19166.72,-19162.67,-19154.553,-19156.717,-19164.363,-19167.312,-19167.672,-19172.992,-19176.182,-19172.502,-19174.557,-19179.146,-19182.91,-19187.719,-19187.635,-19186.262,-19187.965,-19190.592,-19190.684,-19192.6,-19191.326,-19175.479,-19167.43,-19172.498,-19173.049,-19176.434,-19178.816,-19176.047,-19177.195,-19177.236,-19174.102,-19174.734,-19174.941,-19167.322,-19159.785,-19160.676,-19171.469,-19179.668,-19173.71,-19172.756,-19179.26,-19176.383,-19169.523,-19167.352,-19167.238,-19164.764,-19163.123,-19166.234,-19177.227,-19182.947,-19178.412,-19182.398,-19178.803,-19172.467,-19182.895,-19183.932,-19178.236,-19176.691,-19173.691,-19171.27,-19169.375,-19172.713,-19173.633,-19171.193,-19174.855,-19180.75,-19182.22,-19179.027,-19180.844,-19185.762,-19184.914,-19179.283,-19177.521,-19182.266,-19180.057,-19175.957,-19179.318,-19178.775,-19173.598,-19169.732,-19168.441,-19167.652,-19164.059,-19164.158,-19165.562,-19165.965,-19170.111,-19169.605,-19169.193,-19167.771,-19164.44,-19170.06,-19169.096,-19169.92,-19176.41,-19173.166,-19176.572,-19181.758,-19183.041,-19185.383,-19179.566,-19174.25,-19174.473,-19171.66,-19172.252,-19181.172,-19176.537,-19164.379,-19169.947,-19173.717,-19169.348,-19169.73,-19170.568,-19167.74,-19161.434,-19160.414,-19160.814,-19161.578,-19165.998,-19164.186,-19167.049,-19172.496,-19168.63,-19168.129,-19172.168,-19174.994,-19174.703,-19174.67,-19178.441,-19175.658,-19171.348,-19177.023,-19178.766,-19170.66,-19166.822,-19170.559,-19178.39,-19182.262,-19177.104,-19173.977,-19171.488,-19177.111,-19193.914,-19187.2,-19175.055,-19182.479,-19180.143,-19174.799,-19177.088,-19180.541,-19181.457,-19174.787,-19177.336,-19182.615,-19176.338,-19167.54,-19162.303,-19166.525,-19169.32,-19164.393,-19168.193,-19175.309,-19170.877,-19169.725,-19175.598,-19171.256,-19164.129,-19162.14,-19162.988,-19167.756,-19167.21,-19160.418,-19160.598,-19167.316,-19167.729,-19168.227,-19173.627,-19170.242,-19170.062,-19173.035,-19163.543,-19162.447,-19171.03,-19173.92,-19172.555,-19173.445,-19181.316,-19179.984,-19175.12,-19179.918,-19179.15,-19171.303,-19165.469,-19168.242,-19172.596,-19171.338,-19174.227,-19177.164,-19175.113,-19177.328,-19180.152,-19178.242,-19181.244,-19183.967,-19182.521,-19184.703,-19182.29,-19178.6,-19183.941,-19188.234,-19183.541,-19180.348,-19181.377,-19181.186,-19180.756,-19173.123,-19167.738,-19168.293,-19168.406,-19173.496,-19172.91,-19173.15,-19172.105,-19165.232,-19168.482,-19168.348,-19165.865,-19163.904,-19160.78,-19163.352,-19164.201,-19175.729,-19184.463,-19174.193,-19168.445,-19168.375,-19170.316,-19172.861,-19170.598,-19171.348,-19174.812,-19174.807,-19176.373,-19181.244,-19180.783,-19177.107,-19175.889,-19176.062,-19179.625,-19181.63,-19177.316,-19174.27,-19175.633,-19175.01,-19172.014,-19173.158,-19175.166,-19174.168,-19174.588,-19174.842,-19174.791,-19175.934,-19177.89,-19180.041,-19180.676,-19184.271,-19185.217,-19181.562,-19181.08,-19180.104,-19179.93,-19177.984,-19176.404,-19179.781,-19178.438,-19178.97,-19179.81,-19178.36,-19182.783,-19183.639
-19181.662,-19178.896,-19176.354,-19172.203,-19166.562,-19170.762,-19169.102,-19164.727,-19166.492,-19162.184,-19161.402,-19165.932,-19175.008,-19181.676,-19178.682,-19179.613,-19180.96,-19178.084,-19176.213,-19178.889,-19182.951,-19177.129,-19172.037,-19178.436,-19183.543,-19178.969,-19170.074,-19171.889,-19182.666,-19184.117,-19179.873,-19175.871,-19170.57,-19173.54,-19178.424,-19173.861,-19172.773,-19176.25,-19174.307,-19171.182,-19170.875,-19176.318,-19180.1,-19174.156,-19171.277,-19177.564,-19182.264,-19182.53,-19180.002,-19174.406,-19175.344,-19175.357,-19169.941,-19168.637,-19159.781,-19158.975,-19174.426,-19182.602,-19185.582,-19183.422,-19178.883,-19180.143,-19181.19,-19177.38,-19177.04,-19179.432,-19173.244,-19172.574,-19175.98,-19174.195,-19176.025,-19176.303,-19173.918,-19172.963,-19173.943,-19176.17,-19178.783,-19177.447,-19173.445,-19174.56,-19174.95,-19176.84,-19178.684,-19174.729,-19175.09,-19178.893,-19182.344,-19182.824,-19180.143,-19180.74,-19179.348,-19177.803,-19179.914,-19178.943,-19180.334,-19182.717,-19179.145,-19179.264,-19180.44,-19177.006,-19181.281,-19189.04,-19186.514,-19181.174,-19181.557,-19182.148,-19181.646,-19183.521,-19189.97,-19200.28,-19199.275,-19190.44,-19188.148,-19183.47,-19179.22,-19177.514,-19178.334,-19184.455,-19182.338,-19177.992,-19179.924,-19183.102,-19182.51,-19177.418,-19178.822,-19180.512,-19177.012,-19176.793,-19182.465,-19189.34,-19187.895,-19185.215,-19187.822,-19192.113,-19191.24,-19184.959,-19189.785,-19195.662,-19189.475,-19184.928,-19188.977,-19192.264,-19185.186,-19183.576,-19188.086,-19184.6,-19181.607,-19180.605,-19183.184,-19184.15,-19183.734,-19190.074,-19190.11,-19190.697,-19191.303,-19184.545,-19185.2,-19189.36,-19191.016,-19187.12,-19184.24,-19186.787,-19182.072,-19176.502,-19174.549,-19179.855,-19185.766,-19181.316,-19182.932,-19187.17,-19188.338,-19187.236,-19180.555,-19178.406,-19177.088,-19177.297,-19180.98,-19179.354,-19177.037,-19177.34,-19174.594,-19172.059,-19173.32,-19170.32,-19172.803,-19181.477,-19179.658,-19173.586,-19172.326,-19177.729,-19178.346,-19177.408,-19183.791,-19180.436,-19176.629,-19180.062,-19181.79,-19184.158,-19180.85,-19177.582,-19180.738,-19182.158,-19183.008,-19182.379,-19178.604,-19177.535,-19177.174,-19176.268,-19180.432,-19179.176,-19170.611,-19171.465,-19175.375,-19177.92,-19178.938,-19174.527,-19175.504,-19174.346,-19169.059,-19168.72,-19171.04,-19175.293,-19173.193,-19171.861,-19175.877,-19178.088,-19181.56,-19178.531,-19174.965,-19178.268,-19179.295,-19178.07,-19171.406,-19167.201,-19171.244,-19170.15,-19168.912,-19174.838,-19182.805,-19187.262,-19185.55,-19187.979,-19193.594,-19189.174,-19183.71,-19186.283,-19188.484,-19186.885,-19183.951,-19185.66,-19195.176,-19205.848,-19207.154,-19198.688,-19196.508,-19203.066,-19210.51,-19216.635,-19216.004,-19211.334,-19208.08,-19205.508,-19202.064,-19200.621,-19200.168,-19195.746,-19190.361,-19183.848,-19180.145,-19178.56,-19174.127,-19171.61,-19169.652,-19168.877,-19163.625,-19159.512,-19164.496,-19164.424,-19164.555,-19162.684,-19160.625,-19167.69,-19165.242,-19159.426,-19161.44,-19168.082,-19180.223,-19185.102,-19178.62,-19177.236,-19180.223,-19177.543,-19184.72,-19189.629,-19177.395,-19173.828,-19175.803,-19175.367,-19174.412,-19168.91,-19167.482,-19166.59,-19165.709,-19168.691,-19168.607,-19168.521,-19168.842,-19165.234,-19165.854,-19173.078,-19176.154,-19176.904,-19179.574,-19176.174,-19173.059,-19176.334,-19182.848,-19195.912,-19197.322,-19187.951,-19189.627,-19186.482,-19182.107,-19185.354,-19185.965,-19187.059,-19180.88,-19176.133,-19177.568,-19176.68,-19181.117,-19183.387,-19184.766,-19185.746,-19181.521,-19179.492,-19176.408,-19174.373,-19173.773,-19174.668,-19173.596,-19164.863,-19160.479,-19159.566,-19162.57,-19169.547,-19166.389,-19163.871,-19171.11,-19174.549,-19175.652,-19176.346,-19167.113,-19160.797,-19166.016,-19169.553,-19173.045,-19176.873,-19173.805,-19173.941,-19177.86,-19178.158,-19181.285,-19180.682,-19178.31,-19182.828,-19180.549,-19177.834,-19180.95,-19180.29,-19179.441,-19174.447,-19170.387,-19175.186,-19177.393,-19178.527,-19181.506,-19184.914,-19187.883,-19183.729,-19180.781,-19182.81,-19181.695,-19179.418,-19181.957,-19183.555,-19176.412,-19172.945,-19175.498,-19176.76,-19179.195,-19180.56,-19182.838,-19186.498,-19187.643,-19184.854,-19184.61,-19189.055,-19185.6,-19178.436,-19175.256,-19175.357,-19179.65,-19184.781,-19191.9,-19196.693,-19194.314,-19188.021,-19184.156,-19185.988,-19184.094,-19181.207,-19183.693,-19184.459,-19182.113,-19181.996,-19186.512,-19188.357,-19189.527,-19188.752,-19181.543,-19185.826,-19193.34,-19189.318,-19186.871,-19189.348,-19195.062,-19195.574,-19190.96,-19191.508,-19188.809,-19183.902,-19180.922,-19178.404,-19182.242,-19186.86,-19187.945,-19189.357,-19190.863,-19188.107,-19186.455,-19189.615,-19187.236,-19192.77,-19203.508,-19198.646,-19191.227,-19186.059,-19185.068,-19184.709,-19178.777,-19180.46,-19181.404,-19176.635,-19175.969,-19178.969,-19181.24,-19181.934,-19183.15,-19181.227,-19180.166,-19180.729,-19181.496,-19183.47,-19184.613,-19190.031,-19190.822,-19189.988,-19193.018,-19188.285,-19188.438,-19189.86,-19187.059,-19191.674,-19189.922,-19184.621,-19189.004,-19198.389,-19201.178,-19192.727,-19189.752,-19192.338,-19187.91,-19181.629,-19180.896,-19181.873,-19178.795,-19174.688,-19172.045,-19170.326,-19168.744,-19171.148,-19174.518,-19174.52,-19177.213,-19178.604,-19180.307,-19182.096,-19177.188,-19175.113,-19174.605,-19170.316,-19168.293,-19169.154,-19175.566,-19180.812,-19178.43,-19181.043,-19184.602,-19183.014,-19181.42,-19180.521,-19182.684,-19183.092,-19183.96,-19182.312,-19177.707,-19177.773,-19171.998,-19168.957,-19170.217,-19169.371,-19174.965,-19177.865,-19179.248,-19178.113,-19173.082,-19175.625,-19180.576,-19183.666,-19183.926,-19184.656,-19184.193,-19183.92,-19190.197,-19189.871,-19189.426,-19191.81,-19189.559,-19188.766,-19184.982,-19185.531,-19183.912,-19178.592,-19186.963,-19188.445,-19178.447,-19175.436,-19177.781,-19177.312,-19178.584,-19183.166,-19178.422,-19178.414,-19179.072,-19169.834,-19173.521,-19177.822,-19174.727,-19175.904,-19179.016,-19183.143,-19181.666,-19178.705,-19178.35,-19178.326,-19178.09,-19178.21,-19182.328,-19182.367,-19185.664,-19192.354,-19190.434,-19192.436,-19189.086,-19181.344,-19190.58,-19198.092,-19193.377,-19189.732,-19187.68,-19187.717,-19190.555,-19187.629,-19181.725,-19182.434,-19183.537,-19182.934,-19189.129,-19193.344,-19186.805,-19184.75,-19187.355,-19185.006,-19180.602,-19178.512,-19185.447,-19184.488,-19172.988,-19171.238,-19175.12,-19179.42,-19178.295,-19180.58,-19184.81,-19175.877,-19174.422,-19176.299,-19178.277,-19187.953,-19182.29,-19179.518,-19188.494,-19188.248,-19188.03,-19181.637,-19176.848,-19183.72,-19183.902,-19188.09,-19189.271,-19180.05,-19177.629,-19173.074,-19172.316,-19177.035,-19180.24,-19184.71,-19181.924,-19184.164,-19187.998,-19185.672,-19191.658,-19192.049,-19187.719,-19191.295,-19191.475,-19189.844,-19185.438,-19176.744,-19175.062,-19173.758,-19172.996,-19176.117,-19174.129,-19174.11,-19174.178,-19171.709,-19170.643,-19168.416,-19171.15,-19172.2,-19172.11,-19176.566,-19177.324,-19177.11,-19174.451,-19173.594,-19177.707,-19177.191,-19177.457,-19180.494,-19179.604,-19175.686,-19174.727,-19174.688,-19170.14,-19169.63,-19175.176,-19176.668,-19172.293,-19171.92,-19176.092,-19173.172,-19169.13,-19172.092,-19176.963,-19178.887,-19176.572,-19177.709,-19184.037,-19186.658,-19184.486,-19187.174,-19197.82,-19204.93,-19202.168,-19193.645,-19188.602,-19187.127,-19181.652,-19180.203,-19182.38,-19181.18,-19179.201,-19174.791,-19177.154,-19187.555,-19185.666,-19177.598,-19183.824,-19190.707,-19187.396,-19185.89,-19189.72,-19195.025,-19193.2,-19190.717,-19193.863,-19191.594,-19191.496,-19195.898,-19196.033,-19192.232,-19183.215,-19179.398,-19183.086,-19184.592,-19184.488,-19180.76,-19181.174,-19183.266,-19180.998,-19187.438,-19192.148,-19194.299,-19195.947,-19191.102,-19196.521,-19198.912,-19192.072,-19191.32,-19191.0,-19190.398,-19185.654,-19179.514,-19180.553,-19184.46,-19188.27,-19189.611,-19189.814,-19189.725,-19184.943,-19181.658,-19184.963,-19183.7,-19182.389,-19193.96,-19203.393,-19197.9,-19192.084,-19191.7,-19188.934,-19190.693,-19191.867,-19187.885,-19189.678,-19190.19,-19187.434,-19187.605,-19193.545,-19199.252,-19195.936,-19190.217,-19187.393,-19188.602,-19183.361,-19177.047,-19181.396,-19181.008,-19181.691,-19183.602,-19180.672,-19183.828,-19181.965,-19181.686,-19187.654,-19185.023,-19182.982,-19180.418,-19179.734,-19182.89,-19181.068,-19181.545,-19181.31,-19185.377,-19190.248,-19191.928,-19202.412,-19200.984,-19195.324,-19197.58,-19189.855,-19188.89,-19190.637,-19181.482,-19180.957,-19183.26,-19176.53,-19176.957,-19185.121,-19185.016,-19185.096,-19187.566,-19189.982,-19195.793,-19188.955,-19184.846,-19189.658,-19182.127,-19176.135,-19177.006,-19181.828,-19183.523,-19175.545,-19171.113,-19173.684,-19176.027,-19169.625,-19170.879,-19178.63,-19176.771,-19179.21,-19175.697,-19172.555,-19179.344,-19177.346,-19181.297,-19188.408,-19187.102,-19183.32,-19170.184,-19168.047,-19183.074,-19185.355,-19183.084,-19192.521,-19198.857,-19195.406,-19192.83,-19191.143,-19185.059,-19183.23,-19182.836,-19181.746,-19184.17,-19178.494,-19171.166,-19172.23,-19175.166,-19174.037,-19170.03,-19172.123,-19178.57,-19180.416,-19176.678,-19180.48,-19185.436,-19181.41,-19187.064,-19192.057,-19187.467,-19184.31,-19179.195,-19178.203,-19178.9,-19173.336,-19168.686,-19170.447,-19170.545,-19169.582,-19173.977,-19173.35,-19174.043,-19174.305,-19171.979,-19177.852,-19176.04,-19173.818,-19177.46,-19181.84,-19185.938,-19176.621,-19172.389,-19175.207,-19176.598,-19179.414,-19178.14,-19178.727,-19171.156,-19167.771,-19173.213,-19170.338,-19170.494,-19167.373,-19166.135,-19174.98,-19182.58,-19182.895,-19176.504,-19178.254,-19180.615,-19181.164,-19179.65,-19170.926,-19178.277,-19184.36,-19175.602,-19175.436,-19176.014,-19176.21,-19182.041,-19184.553,-19183.865,-19183.72,-19182.748,-19178.604,-19173.424,-19168.014,-19166.133,-19165.715,-19159.947,-19160.273,-19165.113,-19165.375,-19166.68,-19164.316,-19162.604,-19167.12,-19168.73,-19168.627,-19168.812,-19169.914,-19172.268,-19175.361,-19175.75,-19171.432,-19173.8,-19173.514,-19167.219,-19168.84,-19169.686,-19170.45,-19170.613,-19171.2,-19171.17,-19160.812,-19163.756,-19167.07,-19159.055,-19164.326,-19160.46,-19155.059,-19159.291,-19153.117,-19160.797,-19177.428,-19179.969,-19177.705,-19173.549,-19171.842,-19168.316,-19163.809,-19164.75,-19162.37,-19160.764,-19160.373,-19163.559,-19170.117,-19167.27,-19165.521,-19164.61,-19163.854,-19167.465,-19162.838,-19161.94,-19167.936,-19168.61,-19165.207,-19158.004,-19154.977,-19156.742,-19158.451,-19163.56,-19163.908,-19158.719,-19158.299,-19157.342,-19158.58,-19162.816,-19158.383,-19157.875,-19167.61,-19169.293,-19162.594,-19160.666,-19159.598,-19159.914,-19162.59,-19159.512,-19165.062,-19173.992,-19170.102,-19165.174,-19168.463,-19179.363,-19181.467,-19178.842,-19181.041,-19179.34,-19181.53,-19180.723,-19177.896,-19175.578,-19166.393,-19166.396,-19169.855,-19173.545,-19172.717,-19161.33,-19163.484,-19168.908,-19166.447,-19164.746,-19166.756,-19170.67,-19163.39,-19158.738,-19161.078,-19160.846,-19163.855,-19165.49,-19166.436,-19164.945,-19158.486,-19156.82,-19161.934,-19165.44,-19166.39,-19165.904,-19162.1,-19165.162,-19168.797,-19167.266,-19169.297,-19169.242,-19168.05,-19166.707,-19166.836,-19169.404,-19166.006,-19164.027,-19169.412,-19170.674,-19163.867,-19157.535,-19156.744,-19162.922,-19163.838,-19157.162,-19157.605,-19155.963,-19154.06,-19157.812,-19161.55,-19168.465,-19169.637,-19169.096,-19169.156,-19168.191,-19173.24,-19171.535,-19170.553,-19172.455,-19165.918,-19166.902,-19171.979,-19168.854,-19164.44,-19164.908,-19165.934,-19163.332,-19161.297,-19159.354,-19156.861,-19152.475,-19150.988,-19160.2,-19166.822,-19161.773,-19160.568,-19164.236,-19161.922,-19161.34,-19157.104,-19154.584,-19165.297,-19170.775,-19171.883,-19165.445,-19157.656,-19162.55,-19159.31,-19159.682,-19164.443,-19155.074,-19153.021,-19159.156,-19162.037,-19161.486,-19157.318,-19154.21,-19153.742,-19160.127,-19163.89,-19160.332,-19159.664,-19158.479,-19156.158,-19151.2,-19148.234,-19150.582,-19148.604,-19146.57,-19147.197,-19151.508,-19155.06,-19159.736,-19168.516,-19164.469,-19161.549,-19163.537,-19157.607,-19156.426,-19151.215,-19141.336,-19140.797,-19141.314,-19141.184,-19143.156,-19143.14,-19142.943,-19139.066,-19136.518,-19142.809,-19143.426,-19145.287,-19147.236,-19142.553,-19148.482,-19148.273,-19144.795,-19147.395,-19146.525,-19154.68,-19159.404,-19162.57,-19165.613,-19157.385,-19158.016,-19159.725,-19157.086,-19159.842,-19163.846,-19168.738,-19167.062,-19159.36,-19155.98,-19163.758,-19168.684,-19165.184,-19168.498,-19164.92,-19159.371,-19160.432,-19156.898,-19158.164,-19158.04,-19158.977,-19165.633,-19167.36,-19166.998,-19159.986,-19153.871,-19158.16,-19162.78,-19158.277,-19153.316,-19156.344,-19152.447,-19145.516,-19144.244,-19147.35,-19151.275,-19150.24,-19154.84,-19157.7,-19157.232,-19161.395,-19163.9
-19166.158,-19163.22,-19163.004,-19166.66,-19167.34,-19166.594,-19159.188,-19156.318,-19152.775,-19150.553,-19154.45,-19147.459,-19145.723,-19149.885,-19149.182,-19152.443,-19157.336,-19157.518,-19154.459,-19158.129,-19160.78,-19159.393,-19159.41,-19153.729,-19154.03,-19159.027,-19151.926,-19145.586,-19147.479,-19148.611,-19152.193,-19155.334,-19154.344,-19156.797,-19157.99,-19154.902,-19155.37,-19158.934,-19161.754,-19162.967,-19161.94,-19161.904,-19164.611,-19165.55,-19160.078,-19152.04,-19153.209,-19158.824,-19161.582,-19163.049,-19159.113,-19158.236,-19158.893,-19159.707,-19169.02,-19169.674,-19164.998,-19165.84,-19159.84,-19154.76,-19161.893,-19169.684,-19168.756,-19168.959,-19169.459,-19167.268,-19172.215,-19175.764,-19177.895,-19181.906,-19176.998,-19171.578,-19174.227,-19176.773,-19172.684,-19171.436,-19175.254,-19173.787,-19172.146,-19173.316,-19171.555,-19167.012,-19166.475,-19167.062,-19168.74,-19175.42,-19171.691,-19163.81,-19162.738,-19162.62,-19163.836,-19161.557,-19161.82,-19164.695,-19162.406,-19162.32,-19162.092,-19161.154,-19162.443,-19161.693,-19163.895,-19166.697,-19166.746,-19169.63,-19170.182,-19168.01,-19163.79,-19159.693,-19163.836,-19168.379,-19172.37,-19174.887,-19171.072,-19172.684,-19173.615,-19169.666,-19170.84,-19171.146,-19171.016,-19170.146,-19167.861,-19170.35,-19170.756,-19166.908,-19163.934,-19166.648,-19171.635,-19173.086,-19174.018,-19171.91,-19171.691,-19171.236,-19166.037,-19162.385,-19158.193,-19160.822,-19160.615,-19153.63,-19155.254,-19155.547,-19158.129,-19158.92,-19153.5,-19153.412,-19150.066,-19149.688,-19149.281,-19145.748,-19146.748,-19144.895,-19145.553,-19142.48,-19139.955,-19147.512,-19150.986,-19152.076,-19154.662,-19159.607,-19158.04,-19155.584,-19166.836,-19168.371,-19161.71,-19158.28,-19151.975,-19150.691,-19152.807,-19154.256,-19155.832,-19160.031,-19159.518,-19154.477,-19156.334,-19154.098,-19150.693,-19151.479,-19150.746,-19151.729,-19154.455,-19161.154,-19162.402,-19158.133,-19159.736,-19159.488,-19159.58,-19163.703,-19162.018,-19158.08,-19160.748,-19164.748,-19166.662,-19166.83,-19159.297,-19153.484,-19158.3,-19161.785,-19167.287,-19175.76,-19171.617,-19169.518,-19176.03,-19175.459,-19176.906,-19180.068,-19177.248,-19173.27,-19170.902,-19177.455,-19183.43,-19175.357,-19172.66,-19180.99,-19175.658,-19169.297,-19173.312,-19170.117,-19168.406,-19164.135,-19159.406,-19166.375,-19167.557,-19166.494,-19162.98,-19154.098,-19153.168,-19152.482,-19149.967,-19150.633,-19155.639,-19158.074,-19149.027,-19145.686,-19149.646,-19152.66,-19162.355,-19168.488,-19167.059,-19164.25,-19160.447,-19159.379,-19158.623,-19157.81,-19157.703,-19159.635,-19163.443,-19163.713,-19164.363,-19166.908,-19168.672,-19170.654,-19170.55,-19164.553,-19159.854,-19163.135,-19162.482,-19158.594,-19156.738,-19153.014,-19154.326,-19160.562,-19166.875,-19165.592,-19158.24,-19158.637,-19163.084,-19165.877,-19164.463,-19161.5,-19162.443,-19164.041,-19162.645,-19160.37,-19165.072,-19164.695,-19157.477,-19158.084,-19159.36,-19159.732,-19157.414,-19156.176,-19159.232,-19157.895,-19158.355,-19157.795,-19158.89,-19159.553,-19158.16,-19165.287,-19159.97,-19155.246,-19161.984,-19156.697,-19156.88,-19160.902,-19157.072,-19157.227,-19159.232,-19158.44,-19155.734,-19157.295,-19160.492,-19162.71,-19165.963,-19165.1,-19162.666,-19160.314,-19159.57,-19161.752,-19163.588,-19164.723,-19161.9,-19161.975,-19169.623,-19170.38,-19164.762,-19165.797,-19168.94,-19168.096,-19163.258,-19156.924,-19158.166,-19161.73,-19162.914,-19163.934,-19155.826,-19148.268,-19150.215,-19151.436,-19154.398,-19157.223,-19155.334,-19155.299,-19155.008,-19155.373,-19155.928,-19153.03,-19155.719,-19156.654,-19155.344,-19159.959,-19155.822,-19153.148,-19157.395,-19156.133,-19158.906,-19161.023,-19160.953,-19162.297,-19161.678,-19170.564,-19176.512,-19170.174,-19168.014,-19168.164,-19171.033,-19173.66,-19167.562,-19158.93,-19151.283,-19153.547,-19157.629,-19152.627,-19152.03,-19148.988,-19144.152,-19147.305,-19145.293,-19142.396,-19147.984,-19151.35,-19151.602,-19152.428,-19147.127,-19143.404,-19148.406,-19157.291,-19164.996,-19162.27,-19157.516,-19159.564,-19162.67,-19160.232,-19152.066,-19149.17,-19149.541,-19150.033,-19151.498,-19153.979,-19155.982,-19149.137,-19146.895,-19154.652,-19160.623,-19163.275,-19160.855,-19158.521,-19154.912,-19150.965,-19153.367,-19154.055,-19152.904,-19150.676,-19147.31,-19150.396,-19156.217,-19154.81,-19150.94,-19155.191,-19158.32,-19154.477,-19152.865,-19159.562,-19168.447,-19167.943,-19164.93,-19162.871,-19161.482,-19163.385,-19160.383,-19156.15,-19157.135,-19161.307,-19160.855,-19158.365,-19162.217,-19161.346,-19157.814,-19159.36,-19163.607,-19161.998,-19153.797,-19155.908,-19156.26,-19151.893,-19152.086,-19146.781,-19146.979,-19149.652,-19149.523,-19153.48,-19151.588,-19149.904,-19152.205,-19153.12,-19159.812,-19168.838,-19168.402,-19164.623,-19164.986,-19163.701,-19162.99,-19160.83,-19157.803,-19157.188,-19153.346,-19156.842,-19157.557,-19149.389,-19153.818,-19157.434,-19159.592,-19163.81,-19156.979,-19158.148,-19161.193,-19156.703,-19156.035,-19152.742,-19155.705,-19161.652,-19160.643,-19162.775,-19167.434,-19167.629,-19161.375,-19159.967,-19163.398,-19165.975,-19170.053,-19171.264,-19172.316,-19171.13,-19169.676,-19168.553,-19165.215,-19166.17,-19164.834,-19162.72,-19162.783,-19159.451,-19152.234,-19149.021,-19154.162,-19156.041,-19159.104,-19161.068,-19155.738,-19153.13,-19149.236,-19145.11,-19144.92,-19151.676,-19158.84,-19154.297,-19155.191,-19161.938,-19158.264,-19152.844,-19152.107,-19152.084,-19151.889,-19152.676,-19155.273,-19156.992,-19152.367,-19149.037,-19155.32,-19158.676,-19153.111,-19150.39,-19154.271,-19157.293,-19159.275,-19158.889,-19157.791,-19162.102,-19162.578,-19161.666,-19160.42,-19155.596,-19157.6,-19157.705,-19156.084,-19155.293,-19149.03,-19148.877,-19152.13,-19156.45,-19162.16,-19159.373,-19153.322,-19154.111,-19160.377,-19157.352,-19155.037,-19163.152,-19158.998,-19158.658,-19168.924,-19165.693,-19165.379,-19168.205,-19161.357,-19160.717,-19164.91,-19163.299,-19163.541,-19166.738,-19165.762,-19166.082,-19165.709,-19163.781,-19167.258,-19171.885,-19174.584,-19169.486,-19165.148,-19166.611,-19161.91,-19160.15,-19160.338,-19158.168,-19157.998,-19155.607,-19155.898,-19158.354,-19159.416,-19157.852,-19155.283,-19161.283,-19166.287,-19161.83,-19158.984,-19154.432,-19150.732,-19156.064,-19153.703,-19149.984,-19154.812,-19155.0,-19156.244,-19153.764,-19146.94,-19144.514,-19137.938,-19140.875,-19153.133,-19157.22,-19155.361,-19150.066,-19152.887,-19156.518,-19151.316,-19155.48,-19159.855,-19156.605,-19162.113,-19171.195,-19173.863,-19170.357,-19164.207,-19164.234,-19162.438,-19150.611,-19146.225,-19149.691,-19148.346,-19147.887,-19145.729,-19140.023,-19139.836,-19140.936,-19141.176,-19145.26,-19148.875,-19147.61,-19146.674,-19151.037,-19153.865,-19154.008,-19156.988,-19157.424,-19155.998,-19155.664,-19155.418,-19163.365,-19171.99,-19170.492,-19164.807,-19160.416,-19161.695,-19163.643,-19166.734,-19164.021,-19151.666,-19153.51,-19156.285,-19153.713,-19159.117,-19155.277,-19153.043,-19158.033,-19158.238,-19158.963,-19159.33,-19164.74,-19171.623,-19173.553,-19173.672,-19169.695,-19166.676,-19165.328,-19164.676,-19164.254,-19163.678,-19167.672,-19169.957,-19171.043,-19170.709,-19165.04,-19164.75,-19165.814,-19164.598,-19162.719,-19157.46,-19160.266,-19165.064,-19163.525,-19163.037,-19163.365,-19164.129,-19163.668,-19164.78,-19163.682,-19161.133,-19162.447,-19154.057,-19150.154,-19158.566,-19159.031,-19158.205,-19156.807,-19155.2,-19162.627,-19164.207,-19158.94,-19160.422,-19158.164,-19149.498,-19151.96,-19156.084,-19150.1,-19146.729,-19145.957,-19145.082,-19147.01,-19148.795,-19146.8,-19147.475,-19152.904,-19151.32,-19150.822,-19153.2,-19151.984,-19152.918,-19153.531,-19157.812,-19160.518,-19159.355,-19161.207,-19157.797,-19153.836,-19153.297,-19154.027,-19153.838,-19150.854,-19149.127,-19145.738,-19155.346,-19168.818,-19161.643,-19159.258,-19163.328,-19160.105,-19159.451,-19157.621,-19160.12,-19168.375,-19167.172,-19159.258,-19156.268,-19157.607,-19155.734,-19151.312,-19149.184,-19146.94,-19144.873,-19148.34,-19152.578,-19151.492,-19149.527,-19150.49,-19151.658,-19148.0,-19145.19,-19146.586,-19145.318,-19148.645,-19155.818,-19158.758,-19159.785,-19157.695,-19157.03,-19159.98,-19166.812,-19168.707,-19162.346,-19162.738,-19161.928,-19163.363,-19166.969,-19156.994,-19153.54,-19158.057,-19155.676,-19153.873,-19156.633,-19160.092,-19157.947,-19155.72,-19158.742,-19158.236,-19154.9,-19154.498,-19154.754,-19154.79,-19153.654,-19149.672,-19148.77,-19151.23,-19150.982,-19153.86,-19157.654,-19155.07,-19153.29,-19153.525,-19153.72,-19150.43,-19145.555,-19150.254,-19154.713,-19150.377,-19144.639,-19141.752,-19144.135,-19144.873,-19143.828,-19148.773,-19151.646,-19150.398,-19148.922,-19146.033,-19147.367,-19149.549,-19149.486,-19151.111,-19156.447,-19162.38,-19157.06,-19156.81,-19165.457,-19164.457,-19164.332,-19160.354,-19161.145,-19172.18,-19168.064,-19166.336,-19171.014,-19169.518,-19168.346,-19163.264,-19163.215,-19165.11,-19161.3,-19164.066,-19170.64,-19171.273,-19165.105,-19162.861,-19163.318,-19157.031,-19153.188,-19152.193,-19150.812,-19148.803,-19148.895,-19156.596,-19160.525,-19166.008,-19172.258,-19164.61,-19161.998,-19163.209,-19154.936,-19154.01,-19157.246,-19153.852,-19151.607,-19150.807,-19150.258,-19150.059,-19146.93,-19143.309,-19146.717,-19147.596,-19138.062,-19144.527,-19156.852,-19153.242,-19152.791,-19151.678,-19152.402,-19158.445,-19156.678,-19152.91,-19152.506,-19157.36,-19155.557,-19152.344,-19158.492,-19154.447,-19147.117,-19149.395,-19154.604,-19154.96,-19151.695,-19153.139,-19153.559,-19155.379,-19158.1,-19157.615,-19160.188,-19165.092,-19170.506,-19165.377,-19160.707,-19169.379,-19170.117,-19166.736,-19168.31,-19167.932,-19164.945,-19159.602,-19157.705,-19155.088,-19150.26,-19152.99,-19154.062,-19149.709,-19147.936,-19143.428,-19144.291,-19151.354,-19146.371,-19141.074,-19144.102,-19145.658,-19147.477,-19153.102,-19159.322,-19155.783,-19151.89,-19156.758,-19159.629,-19162.56,-19161.799,-19157.05,-19154.639,-19151.277,-19153.127,-19157.117,-19157.066,-19154.596,-19148.547,-19144.867,-19145.56,-19146.695,-19152.018,-19159.908,-19161.113,-19159.36,-19154.951,-19151.916,-19158.275,-19155.42,-19147.879,-19148.783,-19149.46,-19153.605,-19153.455,-19153.533,-19161.936,-19156.484,-19145.975,-19148.52,-19151.81,-19151.756,-19152.77,-19153.402,-19155.371,-19161.152,-19165.166,-19167.713,-19173.24,-19170.691,-19161.152,-19161.047,-19164.652,-19158.738,-19147.162,-19140.262,-19141.783,-19148.35,-19151.389,-19149.162,-19151.926,-19156.266,-19150.617,-19148.217,-19156.41,-19154.758,-19147.898,-19151.898,-19156.568,-19155.246,-19151.742,-19155.27,-19162.58,-19162.195,-19161.744,-19161.498,-19162.268,-19165.988,-19159.05,-19150.822,-19151.635,-19151.473,-19150.354,-19150.475,-19152.299,-19154.162,-19153.277,-19154.371,-19157.164,-19158.947,-19160.404,-19162.078,-19167.533,-19172.055,-19170.248,-19168.99,-19169.281,-19166.672,-19161.99,-19162.078,-19165.416,-19162.738,-19160.365,-19157.145,-19150.031,-19153.959,-19160.791,-19160.004,-19162.008,-19160.756,-19156.217,-19156.393,-19155.705,-19156.979,-19153.348,-19147.418,-19155.328,-19154.031,-19143.973,-19150.111,-19156.158,-19158.277,-19158.512,-19154.502,-19158.186,-19158.025,-19155.586,-19155.418,-19149.59,-19150.107,-19151.889,-19151.803,-19154.09,-19154.963,-19153.68,-19149.83,-19152.3,-19151.803,-19150.186,-19157.959,-19158.885,-19157.834,-19155.879,-19149.559,-19151.824,-19158.887,-19162.793,-19162.385,-19164.463,-19163.855,-19156.523,-19157.822,-19158.715,-19155.2,-19157.818,-19159.865,-19161.424,-19161.727,-19159.975,-19164.018,-19170.262,-19168.102,-19163.547,-19169.295,-19172.307,-19165.795,-19160.299,-19158.432,-19159.492,-19157.941,-19158.133,-19162.693,-19165.615,-19163.803,-19156.188,-19150.754,-19149.295,-19151.885,-19155.129,-19154.113,-19152.205,-19148.436,-19148.88,-19150.684,-19145.586,-19145.426,-19148.312,-19144.402,-19144.588,-19150.084,-19153.463,-19153.213,-19148.744,-19146.844,-19143.691,-19141.744,-19150.393,-19152.426,-19143.705,-19145.867,-19153.871,-19148.152,-19144.148,-19145.629,-19142.164,-19146.309,-19147.549,-19147.81,-19153.09,-19149.553,-19150.988,-19153.059,-19155.205,-19163.629,-19162.033,-19157.123,-19156.922,-19160.39,-19157.31,-19151.91,-19154.934,-19150.135,-19146.102,-19149.871,-19151.057,-19149.824,-19146.404,-19145.535,-19143.902,-19141.855,-19145.344,-19150.1,-19154.39,-19154.422,-19147.287,-19144.078,-19143.506,-19136.508,-19135.81,-19140.518,-19143.936,-19149.64,-19146.74,-19140.475,-19143.643,-19146.81,-19143.105,-19141.877,-19146.023,-19146.98,-19147.361,-19149.152,-19150.93,-19153.785,-19153.988,-19151.723,-19151.207,-19154.426,-19151.654,-19145.139,-19148.31,-19149.746,-19145.855,-19142.578,-19138.814,-19139.799,-19139.045,-19135.09,-19139.84,-19144.824,-19140.139,-19139.398,-19142.85,-19140.096,-19139.572,-19143.26,-19147.408,-19149.713,-19149.328,-19152.309,-19155.783,-19155.906,-19156.645,-19164.297
-19164.955,-19149.367,-19144.738,-19151.928,-19153.635,-19153.84,-19151.963,-19149.26,-19150.545,-19149.51,-19142.855,-19140.625,-19142.03,-19139.246,-19139.346,-19145.732,-19151.441,-19149.875,-19145.803,-19148.47,-19151.857,-19153.994,-19159.549,-19163.285,-19162.805,-19158.17,-19155.166,-19157.742,-19157.516,-19156.986,-19156.865,-19153.703,-19156.31,-19162.39,-19159.613,-19151.35,-19153.979,-19160.607,-19156.607,-19157.518,-19162.67,-19161.12,-19160.295,-19159.482,-19163.598,-19168.793,-19166.113,-19160.568,-19154.41,-19155.33,-19154.61,-19148.764,-19152.549,-19154.246,-19150.283,-19151.982,-19151.648,-19146.328,-19144.896,-19146.605,-19147.117,-19145.715,-19141.176,-19139.865,-19144.686,-19145.916,-19142.695,-19142.357,-19146.002,-19143.043,-19132.986,-19135.914,-19144.52,-19141.988,-19138.035,-19138.695,-19141.246,-19141.896,-19139.117,-19138.482,-19143.045,-19140.264,-19135.395,-19142.484,-19142.215,-19136.986,-19137.566,-19140.041,-19148.914,-19151.496,-19152.242,-19157.617,-19155.625,-19152.904,-19149.04,-19146.176,-19150.309,-19150.967,-19145.844,-19139.088,-19135.004,-19134.135,-19132.492,-19131.969,-19134.652,-19140.889,-19144.16,-19143.445,-19151.352,-19160.664,-19159.533,-19156.951,-19158.957,-19160.785,-19159.13,-19158.105,-19157.627,-19160.4,-19164.213,-19158.887,-19158.129,-19162.387,-19159.818,-19157.51,-19155.84,-19156.268,-19153.861,-19146.58,-19148.867,-19154.965,-19156.191,-19156.8,-19154.29,-19148.645,-19148.848,-19156.326,-19161.67,-19161.656,-19158.367,-19159.635,-19165.998,-19165.967,-19166.344,-19167.162,-19164.404,-19164.807,-19163.168,-19165.854,-19168.629,-19166.203,-19169.541,-19167.77,-19165.723,-19163.062,-19155.965,-19164.838,-19172.316,-19168.414,-19160.516,-19149.965,-19151.152,-19149.125,-19145.49,-19151.75,-19147.928,-19141.045,-19140.15,-19140.021,-19140.486,-19139.498,-19141.902,-19145.312,-19145.707,-19145.533,-19140.434,-19139.021,-19148.094,-19151.262,-19147.81,-19146.834,-19147.94,-19151.633,-19153.736,-19154.896,-19157.504,-19158.516,-19155.027,-19148.492,-19142.863,-19137.84,-19139.594,-19139.812,-19130.352,-19127.492,-19130.055,-19130.94,-19133.865,-19141.31,-19145.328,-19143.186,-19146.791,-19146.344,-19144.504,-19148.457,-19145.535,-19141.781,-19138.666,-19139.297,-19142.053,-19139.938,-19144.799,-19148.178,-19145.947,-19145.453,-19142.934,-19144.54,-19148.604,-19148.754,-19147.855,-19147.91,-19150.059,-19152.914,-19152.312,-19152.541,-19159.018,-19160.035,-19157.0,-19158.578,-19153.902,-19147.893,-19148.012,-19147.154,-19147.27,-19146.701,-19145.654,-19150.594,-19155.895,-19155.635,-19153.064,-19153.938,-19152.975,-19149.297,-19152.492,-19150.615,-19148.021,-19158.512,-19161.082,-19156.922,-19154.916,-19147.205,-19144.01,-19145.99,-19146.883,-19148.531,-19151.936,-19150.17,-19140.805,-19143.178,-19147.74,-19146.5,-19154.375,-19154.443,-19149.707,-19150.906,-19145.303,-19138.967,-19138.176,-19142.305,-19146.303,-19148.152,-19150.867,-19146.473,-19143.58,-19148.465,-19149.357,-19150.643,-19154.105,-19152.865,-19148.828,-19146.865,-19146.38,-19144.15,-19144.588,-19147.361,-19148.182,-19147.945,-19145.291,-19140.154,-19139.645,-19144.836,-19145.469,-19146.104,-19149.621,-19146.076,-19142.723,-19144.031,-19144.736,-19144.217,-19141.281,-19138.457,-19138.463,-19139.645,-19139.787,-19140.121,-19140.412,-19138.508,-19137.584,-19139.496,-19143.723,-19146.514,-19144.885,-19144.918,-19150.877,-19154.322,-19148.006,-19145.69,-19150.24,-19149.852,-19151.45,-19153.04,-19150.217,-19150.47,-19150.492,-19150.148,-19152.613,-19154.484,-19152.168,-19150.283,-19153.094,-19152.803,-19149.982,-19150.877,-19154.133,-19157.26,-19158.74,-19158.871,-19158.178,-19158.693,-19158.08,-19153.611,-19150.023,-19149.035,-19149.549,-19150.795,-19152.068,-19149.445,-19145.85,-19148.03,-19145.453,-19141.998,-19146.357,-19146.467,-19144.393,-19143.299,-19143.043,-19144.979,-19144.84,-19146.854,-19147.322,-19149.045,-19153.717,-19149.525,-19144.736,-19145.479,-19149.713,-19149.025,-19140.031,-19141.271,-19148.725,-19149.527,-19150.32,-19153.172,-19151.77,-19148.41,-19148.906,-19147.578,-19146.834,-19150.979,-19150.596,-19147.455,-19148.703,-19147.715,-19145.566,-19148.516,-19150.562,-19150.262,-19150.08,-19151.945,-19151.957,-19149.186,-19152.473,-19153.143,-19148.037,-19143.537,-19141.068,-19144.766,-19150.92,-19155.55,-19151.596,-19141.588,-19135.252,-19137.39,-19146.457,-19145.814,-19144.803,-19149.68,-19149.055,-19150.941,-19151.252,-19150.484,-19152.627,-19151.334,-19153.355,-19153.957,-19146.09,-19142.607,-19149.098,-19154.508,-19152.176,-19147.361,-19146.86,-19151.69,-19155.965,-19156.715,-19156.168,-19155.145,-19154.895,-19155.395,-19156.367,-19158.016,-19156.57,-19153.762,-19155.887,-19157.291,-19154.04,-19153.684,-19155.598,-19154.984,-19156.943,-19161.57,-19161.871,-19163.676,-19165.412,-19160.924,-19159.225,-19157.541,-19154.457,-19155.158,-19161.162,-19168.389,-19164.367,-19158.082,-19157.76,-19160.787,-19162.97,-19160.605,-19163.506,-19162.047,-19156.682,-19158.95,-19159.002,-19160.557,-19161.318,-19158.951,-19159.871,-19160.596,-19164.129,-19165.826,-19163.531,-19160.867,-19157.613,-19158.408,-19162.67,-19165.402,-19158.598,-19155.441,-19164.572,-19167.094,-19164.318,-19163.174,-19165.533,-19165.105,-19160.225,-19164.38,-19166.916,-19161.652,-19157.893,-19159.994,-19161.648,-19158.625,-19163.314,-19168.584,-19164.734,-19154.549,-19147.111,-19151.484,-19153.416,-19147.998,-19146.969,-19157.098,-19165.139,-19159.303,-19154.244,-19153.352,-19155.291,-19156.13,-19150.33,-19147.482,-19146.727,-19149.287,-19155.99,-19156.451,-19152.479,-19152.348,-19155.4,-19153.951,-19150.566,-19149.545,-19147.238,-19147.691,-19151.547,-19151.408,-19147.227,-19147.146,-19152.299,-19153.033,-19150.541,-19147.643,-19143.947,-19145.084,-19143.678,-19142.666,-19148.383,-19147.168,-19145.143,-19147.393,-19149.223,-19152.812,-19149.717,-19145.275,-19143.285,-19140.873,-19144.744,-19144.965,-19144.814,-19149.684,-19149.467,-19152.68,-19156.975,-19158.654,-19161.88,-19161.088,-19161.686,-19158.424,-19152.363,-19154.406,-19152.77,-19147.209,-19142.3,-19138.057,-19139.35,-19142.797,-19144.21,-19142.326,-19140.389,-19138.705,-19136.197,-19134.19,-19135.13,-19144.404,-19148.828,-19145.04,-19147.922,-19149.43,-19148.762,-19150.475,-19149.941,-19151.428,-19151.037,-19153.385,-19160.111,-19159.45,-19154.07,-19150.113,-19149.793,-19146.287,-19145.646,-19148.768,-19147.395,-19150.984,-19147.07,-19139.123,-19139.604,-19140.275,-19143.387,-19141.16,-19142.484,-19151.65,-19151.486,-19153.635,-19163.002,-19166.148,-19162.045,-19160.068,-19160.475,-19156.36,-19157.762,-19160.816,-19154.75,-19153.578,-19154.514,-19149.932,-19147.527,-19147.543,-19148.283,-19148.053,-19146.805,-19146.803,-19147.758,-19143.682,-19139.732,-19145.348,-19145.4,-19140.281,-19143.324,-19145.844,-19149.117,-19156.877,-19157.11,-19151.492,-19153.342,-19155.967,-19149.639,-19148.562,-19153.463,-19149.566,-19143.168,-19144.074,-19147.938,-19146.67,-19145.928,-19148.467,-19148.037,-19148.967,-19145.984,-19142.92,-19145.918,-19147.086,-19153.625,-19155.076,-19149.01,-19151.908,-19155.012,-19154.352,-19147.768,-19141.469,-19146.375,-19147.299,-19140.977,-19140.559,-19144.785,-19143.848,-19141.54,-19143.809,-19146.92,-19148.299,-19146.412,-19151.223,-19157.209,-19152.0,-19148.277,-19144.627,-19140.658,-19142.916,-19142.26,-19141.686,-19152.016,-19163.342,-19157.488,-19148.576,-19153.385,-19158.38,-19156.512,-19154.973,-19157.45,-19154.07,-19148.127,-19151.135,-19151.406,-19148.885,-19148.057,-19144.312,-19142.805,-19142.074,-19142.348,-19150.004,-19157.105,-19156.738,-19153.662,-19148.143,-19144.828,-19150.395,-19151.83,-19144.588,-19145.264,-19147.156,-19141.383,-19144.66,-19148.643,-19144.193,-19145.861,-19151.756,-19152.734,-19143.521,-19135.066,-19138.744,-19146.342,-19148.469,-19143.076,-19143.408,-19144.479,-19140.828,-19143.523,-19141.133,-19139.65,-19141.01,-19133.63,-19134.414,-19138.844,-19139.053,-19143.277,-19143.518,-19140.959,-19141.564,-19141.545,-19141.549,-19143.426,-19144.545,-19143.64,-19139.953,-19137.084,-19141.74,-19141.479,-19134.633,-19138.234,-19144.084,-19146.893,-19148.6,-19142.502,-19136.771,-19133.848,-19133.098,-19135.938,-19133.807,-19132.166,-19132.54,-19130.0,-19129.336,-19129.832,-19136.42,-19144.717,-19141.727,-19136.59,-19138.217,-19140.467,-19137.512,-19136.518,-19138.13,-19137.004,-19140.205,-19139.352,-19137.244,-19143.72,-19141.309,-19137.6,-19139.742,-19134.68,-19130.92,-19132.43,-19130.95,-19123.773,-19119.691,-19123.965,-19130.24,-19135.938,-19137.232,-19135.393,-19133.35,-19133.607,-19133.795,-19127.451,-19127.623,-19133.01,-19133.725,-19136.688,-19139.916,-19141.39,-19140.889,-19142.096,-19143.463,-19135.566,-19129.771,-19129.037,-19126.832,-19127.295,-19124.18,-19118.635,-19120.914,-19123.871,-19123.31,-19126.184,-19131.438,-19135.395,-19134.287,-19132.443,-19133.797,-19134.332,-19138.324,-19136.115,-19130.291,-19132.12,-19129.133,-19125.838,-19128.52,-19137.957,-19140.143,-19130.48,-19130.85,-19126.715,-19125.598,-19134.86,-19135.111,-19139.496,-19140.049,-19136.102,-19138.373,-19139.557,-19140.395,-19139.908,-19144.479,-19144.09,-19137.555,-19136.742,-19138.713,-19147.326,-19147.256,-19146.092,-19152.965,-19150.326,-19152.393,-19157.373,-19158.3,-19156.602,-19150.19,-19146.312,-19140.621,-19141.328,-19141.965,-19136.887,-19141.053,-19140.277,-19133.783,-19132.475,-19135.205,-19138.715,-19136.9,-19140.025,-19143.639,-19134.443,-19130.44,-19138.9,-19145.809,-19152.785,-19154.553,-19147.465,-19150.035,-19152.398,-19142.158,-19134.826,-19135.703,-19140.598,-19142.049,-19142.07,-19142.867,-19139.549,-19139.795,-19142.533,-19139.877,-19132.883,-19128.742,-19131.773,-19134.291,-19135.936,-19137.646,-19138.234,-19144.11,-19150.012,-19149.188,-19146.346,-19147.719,-19152.854,-19151.818,-19145.818,-19145.98,-19148.87,-19147.02,-19143.932,-19140.957,-19140.418,-19143.64,-19139.803,-19137.611,-19146.65,-19146.566,-19139.518,-19142.238,-19147.686,-19151.25,-19148.156,-19137.53,-19134.43,-19134.182,-19128.229,-19124.639,-19126.83,-19132.754,-19135.166,-19133.127,-19130.752,-19131.936,-19133.7,-19130.996,-19135.0,-19135.934,-19130.297,-19132.947,-19130.229,-19129.117,-19139.975,-19141.238,-19135.516,-19138.492,-19141.209,-19139.975,-19144.57,-19146.99,-19141.656,-19137.773,-19140.408,-19144.62,-19142.898,-19139.389,-19135.998,-19133.691,-19132.79,-19129.256,-19128.656,-19131.574,-19135.346,-19141.7,-19144.326,-19142.629,-19143.912,-19142.197,-19141.715,-19145.36,-19140.973,-19144.508,-19147.738,-19136.834,-19137.438,-19140.346,-19141.477,-19143.357,-19134.957,-19136.297,-19139.906,-19135.469,-19137.365,-19138.457,-19137.613,-19136.318,-19136.256,-19144.918,-19153.63,-19154.502,-19151.37,-19151.607,-19152.32,-19146.705,-19145.43,-19145.646,-19138.865,-19139.88,-19141.664,-19139.352,-19144.879,-19144.85,-19140.08,-19138.973,-19139.773,-19144.484,-19142.953,-19139.43,-19140.588,-19137.463,-19134.365,-19132.781,-19130.805,-19135.545,-19136.91,-19129.54,-19131.549,-19134.479,-19129.898,-19134.332,-19140.459,-19139.914,-19134.887,-19129.404,-19130.992,-19130.986,-19130.967,-19137.154,-19137.72,-19132.707,-19132.18,-19133.01,-19134.781,-19134.07,-19127.824,-19129.217,-19129.799,-19130.613,-19138.672,-19142.635,-19148.025,-19144.621,-19136.123,-19135.412,-19132.605,-19130.451,-19130.623,-19135.578,-19135.307,-19128.5,-19129.125,-19132.54,-19139.031,-19140.914,-19137.795,-19139.092,-19138.701,-19134.863,-19129.314,-19129.836,-19135.611,-19137.373,-19136.027,-19131.314,-19129.543,-19134.87,-19138.842,-19141.873,-19140.639,-19133.377,-19134.473,-19136.678,-19136.127,-19139.371,-19139.285,-19143.469,-19145.697,-19141.633,-19144.5,-19152.436,-19158.268,-19150.22,-19141.158,-19143.443,-19144.982,-19140.688,-19132.207,-19130.215,-19130.348,-19131.371,-19135.068,-19132.584,-19132.148,-19131.922,-19132.3,-19137.615,-19140.418,-19137.277,-19129.459,-19129.814,-19133.453,-19131.041,-19131.078,-19131.768,-19136.256,-19141.662,-19138.584,-19141.027,-19146.705,-19142.932,-19138.047,-19134.3,-19134.762,-19135.97,-19128.973,-19124.7,-19125.066,-19121.807,-19117.34,-19121.14,-19128.52,-19127.682,-19127.998,-19130.88,-19129.27,-19127.012,-19124.66,-19125.025,-19129.09,-19130.658,-19129.154,-19130.633,-19133.762,-19132.682,-19135.064,-19139.625,-19137.045,-19137.38,-19138.352,-19134.152,-19133.576,-19132.352,-19130.172,-19131.51,-19134.377,-19136.16,-19135.299,-19140.127,-19147.36,-19146.404,-19142.47,-19140.168,-19137.521,-19135.447,-19141.06,-19146.984,-19139.215,-19130.82,-19129.291,-19129.104,-19134.414,-19137.766,-19135.84,-19134.906,-19132.715,-19132.975,-19134.766,-19135.918,-19139.594,-19138.764,-19134.28,-19131.549,-19129.855,-19131.643,-19133.396,-19133.35,-19135.553,-19135.176,-19131.025,-19127.393,-19126.396,-19127.639,-19124.54,-19124.08,-19130.373,-19133.498,-19133.072,-19133.76,-19136.244,-19130.377,-19125.967,-19133.412,-19137.379,-19139.525,-19138.842,-19134.479,-19134.098,-19130.25,-19125.33,-19128.785,-19135.85,-19140.807,-19139.498,-19129.8
