SampleData
-9531.977,-27791.045,-20090.016,-5689.5854,-21475.46,-18624.379,-10806.19,-22346.809,-14530.945,-17453.264,-21103.346,-15335.638,-22456.93,-17916.936,-19682.625,-20968.46,-17318.95,-21298.543,-17311.004,-19163.322,-18263.613,-16585.998,-18508.408,-15625.696,-17612.766,-16355.175,-16642.23,-17652.15,-16686.666,-18590.393,-17782.87,-18924.512,-19118.387,-19010.21,-19916.06,-19100.549,-19677.09,-18938.033,-18680.297,-18488.17,-17689.951,-17770.062,-17060.496,-17102.627,-16915.072,-16851.473,-17182.78,-17148.086,-17683.982,-17875.76,-18296.63,-18675.244,-18839.62,-19195.68,-19175.516,-19242.64,-19076.918,-18831.783,-18628.334,-18307.088,-18139.633,-17868.967,-17709.727,-17555.35,-17399.318,-17395.889,-17385.357,-17524.727,-17702.16,-17933.969,-18229.967,-18471.943,-18700.598,-18877.47,-19029.44,-19066.295,-18965.53,-18791.049,-18525.082,-18229.904,-17966.291,-17774.924,-17647.318,-17537.168,-17440.273,-17412.523,-17457.508,-17572.02,-17778.217,-18002.75,-18218.4,-18426.416,-18601.277,-18710.951,-18759.832,-18787.408,-18742.506,-18621.953,-18464.654,-18275.98,-18067.926,-17880.639,-17778.018,-17696.326,-17602.596,-17587.807,-17647.701,-17737.484,-17871.92,-18040.816,-18215.27,-18393.684,-18537.639,-18636.213,-18701.855,-18697.262,-18624.639,-18515.104,-18408.365,-18290.707,-18134.604,-18019.803,-17962.014,-17906.547,-17845.955,-17796.115,-17796.709,-17834.598,-17892.05,-18013.354,-18176.238,-18338.914,-18484.688,-18564.262,-18585.762,-18590.818,-18575.396,-18509.27,-18386.158,-18255.182,-18152.37,-18053.467,-17936.17,-17875.84,-17870.545,-17848.195,-17877.902,-17930.172,-17969.162,-18060.812,-18144.8,-18215.46,-18301.963,-18345.45,-18345.156,-18360.16,-18383.092,-18356.188,-18281.066,-18198.117,-18148.857,-18088.514,-18012.205,-17983.947,-17961.672,-17964.705,-17996.031,-18041.91,-18149.75,-18246.568,-18302.102,-18342.418,-18348.814,-18348.982,-18386.14,-18393.268,-18318.031,-18262.324,-18201.625,-18134.422,-18177.188,-18223.645,-18193.99,-18131.12,-18056.2,-18036.064,-18070.033,-18121.473,-18169.04,-18195.549,-18220.877,-18208.133,-18154.322,-18112.432,-18097.389,-18104.002,-18097.775,-18104.127,-18160.566,-18256.5,-18336.602,-18322.602,-18263.186,-18200.037,-18144.842,-18151.656,-18196.766,-18261.715,-18307.715,-18284.104,-18266.953,-18267.504,-18212.734,-18168.129,-18156.408,-18112.49,-18093.785,-18117.217,-18140.795,-18166.977,-18217.98,-18320.875,-18426.3,-18510.617,-18514.164,-18405.834,-18305.996,-18190.684,-18091.068,-18091.125,-18080.396,-18079.254,-18110.164,-18083.637,-18048.41,-18045.227,-18049.799,-18095.137,-18197.734,-18302.557,-18344.102,-18302.723,-18239.932,-18194.855,-18148.379,-18127.428,-18134.137,-18149.562,-18166.354,-18175.352,-18206.043,-18251.602,-18294.023,-18317.088,-18302.975,-18298.049,-18296.895,-18232.312,-18126.154,-18060.65,-18035.066,-18031.463,-18069.8,-18121.105,-18172.066,-18202.81,-18207.525,-18215.637,-18204.863,-18211.928,-18238.959,-18225.818,-18193.324,-18173.805,-18192.291,-18246.572,-18283.09,-18225.994,-18143.328,-18132.057,-18133.154,-18195.473,-18285.604,-18315.25,-18365.674,-18358.29,-18320.725,-18386.377,-18424.9,-18418.852,-18421.117,-18331.748,-18169.135,-18022.67,-17916.822,-17887.846,-17986.445,-18158.176,-18233.94,-18237.465,-18327.807,-18459.76,-18548.037,-18553.324,-18488.707,-18519.99,-18594.486,-18509.02,-18356.568,-18253.246,-18142.219,-18021.355,-17948.527,-17920.668,-17951.5,-18031.303,-18084.666,-18120.377,-18118.088,-18099.719,-18140.4,-18178.123,-18223.945,-18309.6,-18380.732,-18415.246,-18404.748,-18379.443,-18338.79,-18285.049,-18285.588,-18308.02,-18296.041,-18252.648,-18174.842,-18079.604,-17996.02,-17985.535,-18006.348,-18005.645,-18063.87,-18135.54,-18211.74,-18303.38,-18331.787,-18348.383,-18341.168,-18294.797,-18273.984,-18296.678,-18337.71,-18302.537,-18231.443,-18199.146,-18133.123,-18062.508,-18063.7,-18083.74,-18112.28,-18181.504,-18254.139,-18302.408,-18334.049,-18336.314,-18250.84,-18157.523,-18140.166,-18103.248,-18058.982,-18051.693,-18063.18,-18074.146,-18087.188,-18129.807,-18141.223,-18137.658,-18179.299,-18276.07,-18400.432,-18428.564,-18344.688,-18219.984,-18138.092,-18189.88,-18236.744,-18141.37,-18073.078,-18094.81,-18074.014,-18043.098,-18053.14,-18041.598,-17995.023,-17970.717,-17994.107,-18030.305,-18039.121,-17996.562,-17960.365,-17967.896,-17957.137,-17979.297,-18066.412,-18128.857,-18169.02,-18177.87,-18177.307,-18212.566,-18204.557,-18199.797,-18248.982,-18268.002,-18218.656,-18103.992,-17987.432,-17891.785,-17817.52,-17793.326,-17814.97,-17873.0,-17930.99,-18007.404,-18091.195,-18139.645,-18156.412,-18137.389,-18121.85,-18098.084,-18093.107,-18124.879,-18129.74,-18140.812,-18135.467,-18086.81,-18021.814,-17965.17,-17971.635,-18031.527,-18127.516,-18198.883,-18170.168,-18082.625,-18003.324,-17961.854,-17969.5,-17987.78,-17967.086,-17959.383,-17964.703,-17946.854,-17943.205,-17927.293,-17900.4,-17888.777,-17892.998,-17946.672,-18065.277,-18202.023,-18263.904,-18236.777,-18154.385,-18089.184,-18087.303,-18073.545,-18094.162,-18176.633,-18239.217,-18287.438,-18256.521,-18126.963,-17995.988,-17899.328,-17854.076,-17836.777,-17827.467,-17827.822,-17840.19,-17875.418,-17898.127,-17919.021,-17952.59,-17988.66,-18024.568,-18034.2,-18039.957,-18036.225,-18021.207,-18021.902,-18010.502,-17997.352,-17999.207,-18007.223,-18016.941,-18029.256,-18049.53,-18058.785,-18054.834,-18046.742,-18053.248,-18084.033,-18085.662,-18066.232,-18102.47,-18183.115,-18277.13,-18358.604,-18339.05,-18234.895,-18152.363,-18063.14,-17956.812,-17916.295,-17904.258,-17907.432,-17959.852,-17998.053,-18001.781,-17992.916,-18004.936,-18016.525,-17996.75,-17999.467,-18002.607,-18011.963,-18060.396,-18127.22,-18193.154,-18196.865,-18144.709,-18076.697,-18029.416,-18024.34,-18030.385,-18052.152,-18075.04,-18114.105,-18172.35,-18207.654,-18240.867,-18246.953,-18217.408,-18184.35,-18130.246,-18090.08,-18077.68,-18037.27,-18034.69,-18119.602,-18158.22,-18126.47,-18112.596,-18091.742,-18059.121,-18078.162,-18117.088,-18121.1,-18134.244,-18151.914,-18120.164,-18093.486,-18156.086,-18252.217,-18286.594,-18253.783,-18175.9,-18097.61,-18013.65,-17938.57,-17926.139,-17964.24,-18056.15,-18137.81,-18211.89,-18295.164,-18300.934,-18307.645,-18284.389,-18183.814,-18136.633,-18068.342,-17964.234,-17932.125,-17934.18,-17980.338,-18041.986,-18046.906,-18063.096,-18110.152,-18151.354,-18179.5,-18154.447,-18099.979,-18100.875,-18165.652,-18209.041,-18208.445,-18242.236,-18272.977,-18254.137,-18261.07,-18295.205,-18359.06,-18424.646,-18373.703,-18271.924,-18167.793,-18041.3,-18012.547,-18035.7,-18041.57,-18123.246,-18267.594,-18386.729,-18370.104,-18224.074,-18069.855,-17938.285,-17875.787,-17875.172,-17876.664,-17907.09,-17949.82,-17982.574,-18014.855,-18045.39,-18074.371,-18084.506,-18092.941,-18098.96,-18098.621,-18123.734,-18165.412,-18197.672,-18182.795,-18153.658,-18162.234,-18164.754,-18145.773,-18124.262,-18132.219,-18148.281,-18120.771,-18105.387,-18125.004,-18149.51,-18172.404,-18189.344,-18201.357,-18211.432,-18220.473,-18180.11,-18120.793,-18117.863,-18100.113,-18022.604,-17947.557,-17942.484,-17990.912,-18025.102,-18064.332,-18113.629,-18142.701,-18149.533,-18165.379,-18232.02,-18279.783,-18317.252,-18385.834,-18347.816,-18261.543,-18259.695,-18246.428,-18183.459,-18092.95,-18008.95,-17977.236,-17977.336,-17972.324,-17959.627,-17975.037,-17986.547,-18001.357,-18018.463,-18013.459,-18041.46,-18043.926,-18058.809,-18110.766,-18114.656,-18133.52,-18146.297,-18130.646,-18132.992,-18158.26,-18181.139,-18161.275,-18143.406,-18142.113,-18119.834,-18078.938,-18061.602,-18059.242,-18046.584,-18046.605,-18037.613,-18049.836,-18094.44,-18114.871,-18109.51,-18087.78,-18058.375,-18032.756,-18054.291,-18130.848,-18249.596,-18395.328,-18465.377,-18429.932,-18360.39,-18296.035,-18197.393,-18083.848,-18038.709,-18010.959,-17982.812,-17979.03,-17970.816,-17989.049,-18030.28,-18065.531,-18098.764,-18120.242,-18136.188,-18167.516,-18192.607,-18180.635,-18158.41,-18125.674,-18108.209,-18142.143,-18163.94,-18176.643,-18169.777,-18135.092,-18157.139,-18169.182,-18125.97,-18088.713,-18042.36,-18012.84,-18019.266,-18020.479,-18051.906,-18147.383,-18228.111,-18226.604,-18154.191,-18080.674,-18093.496,-18137.736,-18132.115,-18132.082,-18167.088,-18191.04,-18182.113,-18190.049,-18202.268,-18203.926,-18271.209,-18306.52,-18287.617,-18271.752,-18196.744,-18157.959,-18104.658,-18023.25,-18026.627,-18001.307,-18013.46,-18084.88,-18131.771,-18208.508,-18275.057,-18268.457,-18197.012,-18191.207,-18230.121,-18223.746,-18221.168,-18163.828,-18109.094,-18105.928,-18060.209,-18016.748,-18020.375,-18021.896,-18007.926,-18021.11,-18070.72,-18102.062,-18084.379,-18103.738,-18138.355,-18103.55,-18096.344,-18100.945,-18091.738,-18113.686,-18130.492,-18189.564,-18272.621,-18307.457,-18269.146,-18247.336,-18327.45,-18288.0,-18133.129,-18052.004,-18017.738,-18077.15,-18154.2,-18172.736,-18214.564,-18211.324,-18111.385,-18002.092,-17957.81,-17912.898,-17865.3,-17863.777,-17855.705,-17876.807,-17900.176,-17907.666,-17956.58,-18041.607,-18220.283,-18392.025,-18409.955,-18390.803,-18410.117,-18353.193,-18216.043,-18164.54,-18163.57,-18152.803,-18225.752,-18251.186,-18194.31,-18193.682,-18203.926,-18209.832,-18216.883,-18249.854,-18302.15,-18258.365,-18149.072,-18043.87,-17962.848,-17928.932,-17906.479,-17884.326,-17890.898,-17912.656,-17933.246,-17948.654,-17963.883,-17994.107,-18012.662,-18034.408,-18052.38,-18036.379,-18069.025,-18135.371,-18173.615,-18230.795,-18256.979,-18203.363,-18190.748,-18203.943,-18103.564,-17992.857,-17974.867,-17998.572,-18051.58,-18122.297,-18224.473,-18287.17,-18253.182,-18174.486,-18066.174,-18032.057,-18044.977,-17999.742,-17947.686,-17933.615,-17976.379,-17990.271,-18018.646,-18165.447,-18316.623,-18441.639,-18537.072,-18557.08,-18545.16,-18468.232,-18239.412,-18005.412,-17891.31,-17802.611,-17834.271,-17971.574,-18036.06,-18131.01,-18292.877,-18386.031,-18306.566,-18131.09,-18135.0,-18282.984,-18238.225,-18071.234,-18021.213,-17953.771,-17880.82,-17885.68,-17853.553,-17822.768,-17826.584,-17875.559,-17913.34,-17880.727,-17850.512,-17806.76,-17821.748,-17875.86,-17901.17,-17994.955,-18103.674,-18156.822,-18106.557,-18011.795,-17951.422,-17892.705,-17950.389,-18044.254,-18054.342,-18005.445,-17872.639,-17780.758,-17731.135,-17702.99,-17733.906,-17754.174,-17786.273,-17808.148,-17856.059,-17897.78,-17855.162,-17893.229,-17996.83,-18072.916,-18106.01,-18075.477,-18042.24,-18011.61,-18014.715,-17968.383,-17813.662,-17718.16,-17664.13,-17625.492,-17635.117,-17624.633,-17627.023,-17647.307,-17647.254,-17651.746,-17663.39,-17670.988,-17677.564,-17693.973,-17720.592,-17740.082,-17769.986,-17863.156,-17951.594,-17945.992,-17917.756,-17890.662,-17843.607,-17804.307,-17744.14,-17701.256,-17706.783,-17685.75,-17658.707,-17651.314,-17636.56,-17628.836,-17632.684,-17666.893,-17739.174,-17825.947,-17919.137,-18016.63,-18115.646,-18159.69,-18078.242,-17932.365,-17834.705,-17764.367,-17707.217,-17711.443,-17718.658,-17703.504,-17682.818,-17640.64,-17619.027,-17613.71,-17613.818,-17618.922,-17606.648,-17620.055,-17646.654,-17667.822,-17692.842,-17695.453,-17705.793,-17720.408,-17746.28,-17820.354,-17872.178,-17880.148,-17877.322,-17844.477,-17799.662,-17751.656,-17714.287,-17718.238,-17700.086,-17672.441,-17682.76,-17689.713,-17750.867,-17861.352,-17882.672,-17808.988,-17731.709,-17710.059,-17748.014,-17781.01,-17812.96,-17877.373,-17891.092,-17873.01,-17864.379,-17822.96,-17778.52,-17727.941,-17684.562,-17640.348,-17602.637,-17661.434,-17754.695,-17795.92,-17785.996,-17760.145,-17751.928,-17775.037,-17824.021,-17823.406,-17806.324,-17823.037,-17821.205,-17834.566,-17854.957,-17829.867,-17794.473,-17772.105,-17797.27,-17834.83,-17810.9,-17805.777,-17835.424,-17876.295,-17967.436,-18046.36,-18076.432,-18044.879,-17959.412,-17882.754,-17826.297,-17778.521,-17738.299,-17804.904,-17922.826,-17914.094,-17873.371,-17823.307,-17738.22,-17700.805,-17659.2,-17617.512,-17612.47,-17632.973,-17662.809,-17676.291,-17718.791,-17762.008,-17794.191,-17843.006,-17876.65,-17944.107,-18019.959,-18035.129,-18022.215,-18012.89,-18026.344,-18027.32,-18002.842,-17973.05,-17910.416,-17848.797,-17808.932,-17755.115,-17732.854,-17756.93,-17749.994,-17720.28,-17735.943,-17782.062,-17819.152,-17864.133,-17908.748,-17911.146,-17920.357,-17957.367,-17942.822,-17901.975,-17880.951,-17850.156,-17831.832,-17840.299,-17829.71,-17789.26,-17783.725,-17799.938,-17763.29,-17763.518,-17841.51,-17899.348,-17936.842,-17941.422,-17930.68,-17980.516,-18016.037,-17987.412,-17924.088,-17853.1,-17841.91,-17884.047,-17920.848,-17928.104,-17941.773,-17971.232,-17971.752,-17938.15,-17862.203,-17809.24,-17845.078,-17988.883,-18213.48,-18341.771,-18323.254,-18221.11,-18085.422,-18013.086,-17988.795,-17933.846,-17884.18,-17894.637,-17866.5,-17802.676,-17757.93,-17677.129,-17658.352,-17683.646,-17729.008,-17835.518,-17855.031,-17841.31,-17840.652,-17826.9,-17860.77,-17854.656,-17831.576,-17854.986,-17898.83,-17978.95
-18047.332,-18057.793,-18043.152,-18024.875,-17998.72,-18082.63,-18211.537,-18125.479,-17986.676,-17924.451,-17852.912,-17841.887,-17806.44,-17752.996,-17743.438,-17736.762,-17821.83,-17920.64,-17969.309,-18027.229,-18075.906,-18063.96,-18012.947,-18001.639,-17944.627,-17903.877,-17892.494,-17823.285,-17848.658,-17875.06,-17914.428,-18061.525,-18131.072,-18152.463,-18106.865,-17956.773,-17835.416,-17723.164,-17623.424,-17601.219,-17621.006,-17650.473,-17696.95,-17750.99,-17800.777,-17825.062,-17822.895,-17835.082,-17876.053,-17942.531,-18034.594,-18115.008,-18110.469,-18031.896,-17908.393,-17784.188,-17822.06,-17950.816,-17959.484,-17920.479,-17923.873,-17904.518,-17877.62,-17881.16,-17839.217,-17826.256,-17947.646,-18006.865,-17940.965,-17927.053,-17968.824,-17999.783,-17975.062,-17898.61,-17859.854,-17840.004,-17816.936,-17799.592,-17757.469,-17743.664,-17776.078,-17805.805,-17843.863,-17893.76,-17906.104,-17891.482,-17915.79,-17959.053,-17959.871,-17950.941,-17934.371,-17870.691,-17858.11,-17880.508,-17884.252,-17935.977,-17938.14,-17882.363,-17884.283,-17951.85,-18022.793,-18034.541,-18033.795,-17975.564,-17845.098,-17768.541,-17739.504,-17719.965,-17717.611,-17744.215,-17779.408,-17792.62,-17812.62,-17832.5,-17800.977,-17763.021,-17797.664,-17816.205,-17797.49,-17831.662,-17882.523,-17957.082,-18033.582,-18058.684,-18099.312,-18096.025,-17971.738,-17840.639,-17750.863,-17685.293,-17683.477,-17711.17,-17754.459,-17799.738,-17785.012,-17772.215,-17775.475,-17767.287,-17786.05,-17800.453,-17824.16,-17846.992,-17802.69,-17766.379,-17753.844,-17737.395,-17767.395,-17807.926,-17865.002,-17962.305,-18041.182,-18064.807,-18022.963,-17988.754,-18022.92,-18078.7,-18073.305,-18008.043,-17939.373,-17846.291,-17763.334,-17722.592,-17711.963,-17743.02,-17783.785,-17839.38,-17872.316,-17858.402,-17859.928,-17847.137,-17813.799,-17819.463,-17830.18,-17823.873,-17874.783,-17908.56,-17821.885,-17741.947,-17705.72,-17673.096,-17707.451,-17777.889,-17861.963,-17960.826,-17977.338,-17916.816,-17853.836,-17809.213,-17835.38,-17932.066,-18036.463,-18081.7,-18019.697,-17954.54,-17939.86,-17902.883,-17869.367,-17825.791,-17743.074,-17721.94,-17792.863,-17834.682,-17811.252,-17806.037,-17835.744,-17880.488,-17891.463,-17864.133,-17848.48,-17825.936,-17797.111,-17760.357,-17723.59,-17701.738,-17680.664,-17680.23,-17703.746,-17751.168,-17821.57,-17891.822,-17909.742,-17893.883,-17904.719,-17882.514,-17838.338,-17829.895,-17856.92,-17904.633,-17902.266,-17867.852,-17844.197,-17814.012,-17794.312,-17809.375,-17839.89,-17826.734,-17821.613,-17851.305,-17825.08,-17790.293,-17804.682,-17841.723,-17902.098,-17997.434,-18098.125,-18099.682,-18040.627,-18001.385,-17903.812,-17802.58,-17775.334,-17765.42,-17756.756,-17748.559,-17765.77,-17798.738,-17806.676,-17809.557,-17808.312,-17793.482,-17778.898,-17784.834,-17790.219,-17795.041,-17801.355,-17774.25,-17757.682,-17749.5,-17748.643,-17778.865,-17803.33,-17833.719,-17850.295,-17863.145,-17906.549,-17934.104,-17935.314,-17978.902,-18121.316,-18221.773,-18165.941,-18080.816,-17996.592,-17895.312,-17856.936,-17832.684,-17786.873,-17773.605,-17825.244,-17930.13,-17962.7,-17947.445,-17975.096,-17967.87,-17885.408,-17773.861,-17699.99,-17631.914,-17596.406,-17657.66,-17708.488,-17717.686,-17730.02,-17752.783,-17767.086,-17778.879,-17795.621,-17779.082,-17771.246,-17772.865,-17754.004,-17746.295,-17758.81,-17785.08,-17815.508,-17881.357,-17946.11,-17940.998,-17917.916,-17910.422,-17918.49,-17930.422,-17918.703,-17917.396,-17907.338,-17853.254,-17809.184,-17782.824,-17799.113,-17858.934,-17885.422,-17927.725,-17978.625,-17949.422,-17853.285,-17777.854,-17801.994,-17806.287,-17788.002,-17868.596,-17957.95,-18051.53,-18089.586,-17968.594,-17843.867,-17772.035,-17735.422,-17767.271,-17779.701,-17761.389,-17786.533,-17819.367,-17814.545,-17815.936,-17890.834,-17966.877,-17957.402,-17934.527,-17918.758,-17883.984,-17830.797,-17779.607,-17762.564,-17742.283,-17735.178,-17761.502,-17818.303,-17914.115,-17967.904,-17982.746,-17988.94,-17928.94,-17838.56,-17778.873,-17756.826,-17744.48,-17719.3,-17732.38,-17748.984,-17745.422,-17806.92,-17914.186,-18041.521,-18141.234,-18146.254,-18105.475,-18059.264,-18000.754,-17901.748,-17828.086,-17813.727,-17779.049,-17743.943,-17717.92,-17707.805,-17740.062,-17768.512,-17770.582,-17766.707,-17766.863,-17756.738,-17756.535,-17780.018,-17795.082,-17797.121,-17805.928,-17837.002,-17894.518,-17966.365,-18018.436,-18051.941,-18104.139,-18135.396,-18090.342,-18023.512,-17984.08,-17955.248,-17919.398,-17861.1,-17833.633,-17840.84,-17822.533,-17812.945,-17793.129,-17769.158,-17803.688,-17861.87,-17914.123,-17933.14,-17966.371,-18041.31,-18031.637,-17945.24,-17894.486,-17867.986,-17826.883,-17826.35,-17861.992,-17882.56,-17911.555,-17910.781,-17873.828,-17824.715,-17799.941,-17899.373,-18015.021,-17970.303,-17841.979,-17829.598,-17907.336,-17906.346,-17880.932,-17908.596,-17932.848,-17922.223,-17879.791,-17857.75,-17895.707,-17979.543,-18088.77,-18121.502,-18071.441,-18039.592,-17965.445,-17909.012,-17937.422,-17934.164,-17905.457,-17831.27,-17763.39,-17759.982,-17737.602,-17731.008,-17725.805,-17745.162,-17807.848,-17887.9,-18060.408,-18219.281,-18305.668,-18321.322,-18238.338,-18179.408,-18090.291,-17913.443,-17802.205,-17768.176,-17710.594,-17658.676,-17679.51,-17730.041,-17771.271,-17797.61,-17823.465,-17869.285,-17898.32,-17921.541,-17958.94,-17987.143,-17995.477,-17998.924,-18026.97,-18010.86,-17919.625,-17856.307,-17854.91,-17869.389,-17880.955,-17895.787,-17920.104,-17977.04,-18022.592,-18013.139,-17990.451,-17955.37,-17916.186,-17862.754,-17821.826,-17839.36,-17821.373,-17787.91,-17790.535,-17782.582,-17771.412,-17754.611,-17763.832,-17808.166,-17885.027,-17984.455,-18036.229,-18083.955,-18117.732,-18083.975,-18061.174,-18042.86,-17983.752,-17951.188,-17960.3,-17968.953,-18014.086,-18072.975,-18087.64,-18084.762,-18029.684,-17916.537,-17903.816,-18023.682,-18131.447,-18256.36,-18392.605,-18403.104,-18271.4,-18034.127,-17884.893,-17836.232,-17745.875,-17718.174,-17708.637,-17697.264,-17718.738,-17753.064,-17913.492,-18115.203,-18228.324,-18184.678,-17994.906,-17835.07,-17743.668,-17704.504,-17699.855,-17715.982,-17759.451,-17789.223,-17817.111,-17830.203,-17839.473,-17868.818,-17862.531,-17846.113,-17871.986,-17879.72,-17839.387,-17838.934,-17856.97,-17841.182,-17847.646,-17848.324,-17835.635,-17847.555,-17871.406,-17896.941,-17902.967,-17921.688,-17976.627,-18009.29,-17995.006,-17971.941,-17969.047,-17978.824,-17983.951,-18005.277,-18080.352,-18115.357,-18034.102,-17944.273,-17872.121,-17814.955,-17815.896,-17812.793,-17837.645,-17917.652,-18001.29,-18090.48,-18143.72,-18179.967,-18144.172,-18038.867,-17970.436,-17843.188,-17758.193,-17755.754,-17703.463,-17707.682,-17733.832,-17749.496,-17812.113,-17853.914,-17875.445,-17931.559,-18036.062,-18105.82,-18136.383,-18122.504,-17998.334,-17882.107,-17782.787,-17724.03,-17786.918,-17810.59,-17800.408,-17846.55,-17890.297,-17905.193,-17893.82,-17879.36,-17867.69,-17864.342,-17848.299,-17824.508,-17819.078,-17810.666,-17813.973,-17811.727,-17820.684,-17838.357,-17825.824,-17838.318,-17869.168,-17899.467,-17930.182,-17957.646,-18006.943,-18033.658,-18011.105,-17982.182,-17966.643,-17999.533,-18112.346,-18203.252,-18239.936,-18263.334,-18171.717,-18038.926,-17977.203,-17903.262,-17851.129,-17830.066,-17809.44,-17828.688,-17825.025,-17800.795,-17808.363,-17803.94,-17803.691,-17817.424,-17809.314,-17811.494,-17819.898,-17806.307,-17817.771,-17865.938,-17899.877,-17899.867,-17906.145,-17946.324,-17963.664,-17960.607,-17981.693,-18004.445,-18017.637,-17991.574,-17976.27,-17987.379,-17925.945,-17876.084,-17877.059,-17848.44,-17811.666,-17785.895,-17776.207,-17785.785,-17813.277,-17823.951,-17816.137,-17840.727,-17862.607,-17878.514,-17926.947,-18003.889,-18078.812,-18101.36,-18083.812,-18060.37,-18008.822,-17930.277,-17916.047,-17955.287,-17970.404,-17979.223,-17928.338,-17861.688,-17871.088,-17893.465,-17930.68,-17923.793,-17846.15,-17819.338,-17836.414,-17871.25,-17901.12,-17895.18,-17912.168,-17948.998,-17976.064,-17989.77,-17987.176,-17972.553,-17922.434,-17912.268,-17966.955,-17979.836,-17977.889,-17979.959,-17966.842,-17944.02,-17885.592,-17864.928,-17884.053,-17884.688,-17885.914,-17876.527,-17868.541,-17881.584,-17923.078,-17993.748,-18094.55,-18184.465,-18222.416,-18241.867,-18155.385,-17989.41,-17899.723,-17847.54,-17822.723,-17828.682,-17843.846,-17881.916,-17909.102,-17940.295,-17992.346,-18100.682,-18243.072,-18288.664,-18253.389,-18188.838,-18092.055,-17955.06,-17789.986,-17720.318,-17723.547,-17741.086,-17838.684,-17917.018,-17955.451,-17998.816,-18001.32,-18031.0,-18079.629,-18145.775,-18227.455,-18198.46,-18101.646,-18039.957,-18003.56,-18003.062,-18116.188,-18208.576,-18169.451,-18179.248,-18188.805,-18196.986,-18230.852,-18135.111,-18077.54,-18098.547,-18082.484,-18059.307,-18016.512,-17958.717,-17864.486,-17826.473,-17842.412,-17825.617,-17898.723,-17998.596,-17992.096,-17997.988,-18104.643,-18173.9,-18146.668,-18131.318,-18142.92,-18165.123,-18101.74,-17965.756,-17949.57,-17989.322,-18017.55,-18047.314,-17992.967,-17952.416,-17994.21,-17989.992,-17924.088,-17870.135,-17834.94,-17799.697,-17794.283,-17883.006,-18060.053,-18218.986,-18282.037,-18218.371,-18079.117,-18006.13,-17981.537,-17979.97,-18023.201,-18002.512,-17958.725,-17917.174,-17823.379,-17786.646,-17794.885,-17775.56,-17761.191,-17777.748,-17825.277,-17896.979,-17961.287,-17972.156,-18059.375,-18195.846,-18192.537,-18175.559,-18171.338,-18160.816,-18200.422,-18166.18,-18161.582,-18244.098,-18243.494,-18180.988,-18137.076,-18140.676,-18152.64,-18104.09,-17954.203,-17772.092,-17641.559,-17537.598,-17544.271,-17633.076,-17742.188,-17884.488,-17907.945,-17862.37,-17844.652,-17824.205,-17899.877,-18041.482,-18129.418,-18147.443,-18030.516,-17838.785,-17725.633,-17627.637,-17596.246,-17676.375,-17709.8,-17722.984,-17749.541,-17833.725,-17960.85,-18000.656,-18011.82,-17994.56,-17948.781,-17934.049,-17932.836,-17954.729,-17969.387,-17931.7,-17840.348,-17742.629,-17658.879,-17628.734,-17668.264,-17737.168,-17862.506,-17971.84,-18028.447,-17971.377,-17790.469,-17691.348,-17628.5,-17556.53,-17538.564,-17562.361,-17603.373,-17577.15,-17558.072,-17551.346,-17531.555,-17568.088,-17581.29,-17594.318,-17633.207,-17662.414,-17701.385,-17736.713,-17828.682,-17931.742,-17913.92,-17839.16,-17764.85,-17637.03,-17531.781,-17547.113,-17617.293,-17674.611,-17719.273,-17760.625,-17730.164,-17630.219,-17596.896,-17587.434,-17552.145,-17543.932,-17531.967,-17568.354,-17658.752,-17678.709,-17641.58,-17599.197,-17561.266,-17563.973,-17573.217,-17531.883,-17504.643,-17533.604,-17558.65,-17603.355,-17683.42,-17782.148,-17867.502,-17849.098,-17826.215,-17854.893,-17816.828,-17725.916,-17648.656,-17594.023,-17519.797,-17481.674,-17491.152,-17418.549,-17365.787,-17424.844,-17464.934,-17440.537,-17432.541,-17458.443,-17462.947,-17471.207,-17482.768,-17485.154,-17496.082,-17501.307,-17546.434,-17624.531,-17685.201,-17721.35,-17759.527,-17825.193,-17857.607,-17855.873,-17838.938,-17786.781,-17787.854,-17825.195,-17795.033,-17775.664,-17742.705,-17668.135,-17644.184,-17532.791,-17411.312,-17414.973,-17402.59,-17442.838,-17479.285,-17482.178,-17554.762,-17521.525,-17445.018,-17439.951,-17418.523,-17425.77,-17455.629,-17475.357,-17508.096,-17536.367,-17561.557,-17586.393,-17610.94,-17642.41,-17680.156,-17763.697,-17830.236,-17759.53,-17636.775,-17592.822,-17637.049,-17640.127,-17545.113,-17509.87,-17514.824,-17495.777,-17522.111,-17546.74,-17561.006,-17574.492,-17549.043,-17519.152,-17529.72,-17584.79,-17604.594,-17560.373,-17521.336,-17488.111,-17461.666,-17495.57,-17576.168,-17638.367,-17677.506,-17715.621,-17727.387,-17723.436,-17749.15,-17752.88,-17737.662,-17758.412,-17689.525,-17541.975,-17507.756,-17545.375,-17557.086,-17558.768,-17536.13,-17498.035,-17489.18,-17508.928,-17520.607,-17524.059,-17561.008,-17631.943,-17696.877,-17696.627,-17630.748,-17579.11,-17555.045,-17562.205,-17619.398,-17708.7,-17817.729,-17882.135,-17856.781,-17748.2,-17616.854,-17563.973,-17539.34,-17487.607,-17469.227,-17507.174,-17588.729,-17683.186,-17760.463,-17797.686,-17814.299,-17831.97,-17819.277,-17858.385,-17950.65,-17913.29,-17793.174,-17727.533,-17663.654,-17576.584,-17514.07,-17488.725,-17477.66,-17477.49,-17495.566,-17502.28,-17515.781,-17541.646,-17550.582,-17593.848,-17662.53,-17692.887,-17704.658,-17721.977,-17764.645,-17846.44,-17914.5,-17929.934,-17910.926,-17850.035,-17749.947,-17663.07,-17622.607,-17619.975,-17585.7,-17524.074,-17514.234,-17519.11,-17527.453,-17548.053,-17548.785,-17555.045,-17551.61,-17524.316,-17506.402,-17537.95,-17627.25,-17715.955,-17777.834,-17820.441,-17830.598,-17831.998,-17892.773,-17927.875,-17839.295,-17753.852,-17702.266,-17641.39,-17665.346,-17745.99,-17764.426,-17770.213,-17818.002,-17865.465,-17860.703,-17741.062,-17600.918,-17534.88,-17494.38,-17502.537,-17531.605,-17555.61,-17599.691,-17636.52,-17697.023,-17744.5,-17741.043,-17730.037,-17689.46,-17646.578,-17604.59
-17555.15,-17553.176,-17548.027,-17558.688,-17628.459,-17686.094,-17712.23,-17732.068,-17800.662,-17852.182,-17828.66,-17816.797,-17792.576,-17771.072,-17778.17,-17751.996,-17676.33,-17592.291,-17566.47,-17549.55,-17559.021,-17619.959,-17686.303,-17777.549,-17806.902,-17815.67,-17830.465,-17794.637,-17801.96,-17747.805,-17636.848,-17602.648,-17589.021,-17641.018,-17727.232,-17747.379,-17734.205,-17719.084,-17715.117,-17689.531,-17652.03,-17634.67,-17600.396,-17558.049,-17548.092,-17602.957,-17684.5,-17739.508,-17823.242,-17884.889,-17867.38,-17895.207,-17979.018,-18026.307,-17995.064,-17873.375,-17740.37,-17689.377,-17715.324,-17775.146,-17882.307,-18018.105,-18176.117,-18326.498,-18291.02,-18128.018,-17907.768,-17585.418,-17391.035,-17348.996,-17371.281,-17472.453,-17566.082,-17650.195,-17672.195,-17679.102,-17717.076,-17724.168,-17787.04,-17817.201,-17722.283,-17630.373,-17634.15,-17632.188,-17553.994,-17528.998,-17536.4,-17552.021,-17580.586,-17593.926,-17662.195,-17752.03,-17822.707,-17875.842,-17924.914,-17888.45,-17777.137,-17805.756,-17822.271,-17729.51,-17722.035,-17753.63,-17725.555,-17636.662,-17582.0,-17579.018,-17556.477,-17563.824,-17590.271,-17686.64,-17842.969,-17892.229,-17891.547,-17882.154,-17844.54,-17856.32,-17872.016,-17848.568,-17767.453,-17592.973,-17527.371,-17662.533,-17770.377,-17849.67,-17942.242,-17914.27,-17848.018,-17862.873,-17893.312,-17903.125,-17956.334,-17990.158,-17928.004,-17851.77,-17706.451,-17526.262,-17518.375,-17581.232,-17563.55,-17535.55,-17491.506,-17430.402,-17436.576,-17484.309,-17523.686,-17512.852,-17504.88,-17591.773,-17691.863,-17792.236,-17852.623,-17820.723,-17832.27,-17916.365,-18084.764,-18293.61,-18332.506,-18176.629,-17938.71,-17687.105,-17514.455,-17410.162,-17206.89,-17019.807,-17022.504,-17026.014,-17060.639,-17175.408,-17225.342,-17321.084,-17427.557,-17485.209,-17597.9,-17743.783,-17948.48,-18164.346,-18299.447,-18307.459,-18134.266,-17890.867,-17640.635,-17344.988,-17116.736,-17029.383,-17015.793,-17083.115,-17228.152,-17394.057,-17630.47,-17906.24,-17928.379,-17680.666,-17480.89,-17270.93,-17051.33,-17043.926,-17128.914,-17238.25,-17404.35,-17489.348,-17363.596,-17213.922,-17256.379,-17273.271,-17346.355,-17629.688,-17802.021,-17848.086,-17805.965,-17578.398,-17303.846,-17086.748,-16941.133,-16870.463,-16882.512,-16870.088,-16850.65,-16961.418,-17044.373,-17088.61,-17206.51,-17432.713,-17782.977,-18000.367,-17981.773,-17838.754,-17643.357,-17505.492,-17385.771,-17235.9,-17127.611,-17075.074,-16993.045,-16860.717,-16804.303,-16848.277,-16893.373,-16922.553,-16981.807,-17076.023,-17177.291,-17254.402,-17281.215,-17266.457,-17240.252,-17220.334,-17212.701,-17206.322,-17170.486,-17134.963,-17131.549,-17117.877,-17078.44,-17021.254,-16977.412,-16953.873,-16929.932,-16954.139,-17022.553,-17083.455,-17124.412,-17134.229,-17112.877,-17070.867,-17055.56,-17068.637,-17076.547,-17124.297,-17185.549,-17215.373,-17261.453,-17319.648,-17322.537,-17267.941,-17266.697,-17284.967,-17227.406,-17197.977,-17177.729,-17144.814,-17158.996,-17131.238,-17135.162,-17231.05,-17301.352,-17299.068,-17215.36,-17107.572,-17028.691,-17024.385,-17111.031,-17213.932,-17246.822,-17178.521,-17101.887,-17053.133,-17036.758,-17070.873,-17107.906,-17139.695,-17138.934,-17126.031,-17118.168,-17043.121,-16968.84,-16989.041,-17047.002,-17097.19,-17153.613,-17168.885,-17097.285,-17054.768,-17076.703,-17057.15,-17048.926,-17069.475,-17123.584,-17238.955,-17293.668,-17300.428,-17251.87,-17143.84,-17102.105,-17087.791,-17097.389,-17125.688,-17107.441,-17065.725,-17003.363,-16991.5,-17049.533,-17033.824,-16955.098,-16906.74,-16815.508,-16732.287,-16790.2,-16868.334,-16868.45,-16871.762,-16910.48,-16950.986,-16979.879,-16965.535,-16934.41,-16943.904,-16948.768,-16943.941,-16920.719,-16884.83,-16903.496,-16924.906,-16916.184,-16945.477,-17061.283,-17227.057,-17418.717,-17582.527,-17536.635,-17308.193,-17071.959,-16906.854,-16819.232,-16714.188,-16616.688,-16601.85,-16629.594,-16695.074,-16780.379,-16893.854,-16994.082,-16949.598,-16858.955,-16826.438,-16751.912,-16667.498,-16655.273,-16675.627,-16738.22,-16826.03,-16881.652,-16956.527,-17041.756,-17080.6,-17103.184,-17124.6,-17106.87,-17036.977,-17023.7,-17111.63,-17162.088,-17081.414,-16927.367,-16807.76,-16698.979,-16595.123,-16597.273,-16642.984,-16674.436,-16738.977,-16785.637,-16806.342,-16854.717,-16904.336,-16915.146,-16887.152,-16853.771,-16846.262,-16827.338,-16809.768,-16926.87,-17078.107,-17038.584,-16926.78,-16860.387,-16762.22,-16680.469,-16697.99,-16776.762,-16854.557,-16913.242,-16933.482,-16929.336,-16933.771,-16906.072,-16823.08,-16731.13,-16695.8,-16694.152,-16663.729,-16648.498,-16648.88,-16642.055,-16686.186,-16764.244,-16814.336,-16860.104,-16910.389,-16951.797,-17002.156,-16983.615,-16952.867,-17043.182,-17100.91,-17097.318,-17089.715,-16951.863,-16753.95,-16614.074,-16526.896,-16534.3,-16591.32,-16647.865,-16734.375,-16817.012,-16888.139,-16940.979,-16990.988,-17096.674,-17138.967,-17038.834,-16864.686,-16668.287,-16553.078,-16549.904,-16579.678,-16607.164,-16641.941,-16689.748,-16747.303,-16808.18,-16838.18,-16850.201,-16878.064,-16888.695,-16897.37,-16924.809,-16912.195,-16866.594,-16825.023,-16760.658,-16729.184,-16800.463,-16914.74,-16987.416,-17023.973,-17130.139,-17267.152,-17242.506,-17068.451,-16935.06,-16860.062,-16741.303,-16658.105,-16638.572,-16608.213,-16614.203,-16627.479,-16619.826,-16647.473,-16687.135,-16726.785,-16759.537,-16758.035,-16751.04,-16723.762,-16681.695,-16679.287,-16682.693,-16719.545,-16798.76,-16856.71,-16914.604,-16933.652,-16909.758,-16940.07,-17065.27,-17193.66,-17173.938,-17079.295,-17001.02,-16895.129,-16846.963,-16888.396,-16913.492,-16880.918,-16795.176,-16688.457,-16624.793,-16606.322,-16605.021,-16635.205,-16702.412,-16778.72,-16795.34,-16781.594,-16800.547,-16794.95,-16768.115,-16731.502,-16734.361,-16813.312,-16853.16,-16861.137,-16874.63,-16911.309,-17022.22,-17145.168,-17213.06,-17186.055,-17117.004,-17094.594,-17108.79,-17148.883,-17154.795,-17071.373,-16923.92,-16770.555,-16703.84,-16709.68,-16682.057,-16628.584,-16615.248,-16619.488,-16623.283,-16661.207,-16711.867,-16749.154,-16764.264,-16752.79,-16758.256,-16787.46,-16820.547,-16850.154,-16873.154,-16921.416,-17017.37,-17099.516,-17105.95,-17099.0,-17033.643,-16852.896,-16774.469,-16865.635,-16975.006,-17091.697,-17199.562,-17186.74,-17065.277,-16918.314,-16764.543,-16667.133,-16632.914,-16626.162,-16678.217,-16736.04,-16789.34,-16855.486,-16904.945,-16936.535,-16916.23,-16910.902,-16916.975,-16850.814,-16783.014,-16741.764,-16750.066,-16793.664,-16824.19,-16874.836,-16913.07,-16924.416,-16917.67,-16897.22,-16878.025,-16853.121,-16866.943,-16909.479,-16921.318,-16898.822,-16874.17,-16879.168,-16920.1,-16984.682,-17045.338,-17089.314,-17117.266,-17113.393,-17026.627,-16962.812,-17050.625,-17080.385,-16982.334,-16926.432,-16859.557,-16791.898,-16834.674,-16868.97,-16859.41,-16863.475,-16839.83,-16887.615,-16946.701,-16893.646,-16855.107,-16835.623,-16837.408,-16864.955,-16864.174,-16870.648,-16880.537,-16924.639,-16975.69,-16986.525,-16989.453,-16965.44,-16954.596,-16979.8,-17044.232,-17156.379,-17241.678,-17319.773,-17368.695,-17309.693,-17263.752,-17240.805,-17146.334,-17123.113,-17195.543,-17165.521,-17036.328,-16950.15,-16899.002,-16848.49,-16854.143,-16891.137,-16932.686,-17026.418,-17128.217,-17120.639,-17015.316,-16931.115,-16842.35,-16734.05,-16683.902,-16699.623,-16787.283,-16880.816,-16936.975,-16989.88,-17022.896,-17047.146,-17069.594,-17102.889,-17146.084,-17163.227,-17185.832,-17207.777,-17187.17,-17194.752,-17204.338,-17077.096,-16946.908,-16886.684,-16802.242,-16829.115,-16922.08,-16973.352,-17048.484,-17068.701,-17040.594,-17006.629,-16985.434,-17020.123,-17029.152,-17030.428,-17056.395,-17055.883,-17052.867,-17034.387,-16972.049,-16930.752,-16931.428,-16930.887,-16953.34,-16987.16,-17007.225,-17038.332,-17064.62,-17102.361,-17135.145,-17135.258,-17139.223,-17125.643,-17084.037,-17038.184,-17019.516,-17040.87,-17038.39,-17006.135,-17001.139,-17021.447,-17022.357,-17000.58,-16986.295,-16977.82,-16995.996,-17044.389,-17068.82,-17082.7,-17103.613,-17101.844,-17091.139,-17070.768,-17053.059,-17073.857,-17105.873,-17149.727,-17198.81,-17236.71,-17320.549,-17382.242,-17372.25,-17385.547,-17329.887,-17218.15,-17206.793,-17202.354,-17203.053,-17232.113,-17195.826,-17131.572,-17070.514,-17015.291,-16993.498,-17033.31,-17048.309,-16995.545,-17001.94,-17014.701,-17012.578,-17072.63,-17113.469,-17122.56,-17147.363,-17169.244,-17209.932,-17325.105,-17443.662,-17478.582,-17474.666,-17444.57,-17406.723,-17381.844,-17340.346,-17331.441,-17399.174,-17455.977,-17413.24,-17348.197,-17284.95,-17166.047,-17048.72,-16988.297,-17034.877,-17098.19,-17093.969,-17125.102,-17175.713,-17300.71,-17489.684,-17542.166,-17480.984,-17361.008,-17220.777,-17144.168,-17150.146,-17237.338,-17309.264,-17300.545,-17225.37,-17120.11,-17029.012,-16941.965,-16930.715,-16990.139,-17017.23,-17057.936,-17110.97,-17152.47,-17209.18,-17221.883,-17212.5,-17254.46,-17259.285,-17167.477,-17118.377,-17143.49,-17145.473,-17161.238,-17208.459,-17274.852,-17332.523,-17310.664,-17293.984,-17317.02,-17322.59,-17354.48,-17364.033,-17282.793,-17201.705,-17167.232,-17116.451,-17050.602,-17016.729,-17010.06,-17024.85,-17053.74,-17085.113,-17161.607,-17265.61,-17341.828,-17414.334,-17442.084,-17448.605,-17531.498,-17521.027,-17349.055,-17232.059,-17163.826,-17131.244,-17243.67,-17432.79,-17683.535,-17929.4,-17935.63,-17681.672,-17410.129,-17207.36,-16946.352,-16799.168,-16852.01,-16897.518,-16957.504,-17032.04,-17079.895,-17119.486,-17144.354,-17171.633,-17176.53,-17190.18,-17214.82,-17205.463,-17181.467,-17188.781,-17197.809,-17177.21,-17208.592,-17257.82,-17293.719,-17353.836,-17455.453,-17590.982,-17610.336,-17550.4,-17481.97,-17356.844,-17314.46,-17329.832,-17331.69,-17362.7,-17298.135,-17167.854,-17080.404,-17024.375,-17033.553,-17085.762,-17142.146,-17153.166,-17134.777,-17137.662,-17121.074,-17151.133,-17196.234,-17201.896,-17227.867,-17227.643,-17227.352,-17253.797,-17321.285,-17412.91,-17411.086,-17373.582,-17354.258,-17309.902,-17251.248,-17200.654,-17180.143,-17165.559,-17144.215,-17144.006,-17170.51,-17196.975,-17200.693,-17204.832,-17213.469,-17208.238,-17199.41,-17193.963,-17189.787,-17196.223,-17230.375,-17283.87,-17314.27,-17327.527,-17391.389,-17468.822,-17475.85,-17496.33,-17562.416,-17619.086,-17702.758,-17728.71,-17626.045,-17486.625,-17389.375,-17353.97,-17344.727,-17398.432,-17421.664,-17318.121,-17217.143,-17097.707,-17028.03,-17051.975,-17048.52,-17086.914,-17125.318,-17144.385,-17162.86,-17156.24,-17232.422,-17306.127,-17304.71,-17298.564,-17279.629,-17243.082,-17217.002,-17206.918,-17219.861,-17324.42,-17426.09,-17428.732,-17410.453,-17333.877,-17230.672,-17213.523,-17218.455,-17201.346,-17191.979,-17188.605,-17214.834,-17237.553,-17227.045,-17233.895,-17237.963,-17222.16,-17203.746,-17195.861,-17204.53,-17208.127,-17214.045,-17216.53,-17224.006,-17242.297,-17249.566,-17263.408,-17276.445,-17294.316,-17331.238,-17360.885,-17397.55,-17428.559,-17402.713,-17362.902,-17390.574,-17438.002,-17405.682,-17347.207,-17335.422,-17332.873,-17309.688,-17275.182,-17265.557,-17275.936,-17295.434,-17339.297,-17368.258,-17401.979,-17442.861,-17437.34,-17411.479,-17348.648,-17289.264,-17292.924,-17283.5,-17291.713,-17321.912,-17341.678,-17441.871,-17535.975,-17490.498,-17358.477,-17234.771,-17152.986,-17121.758,-17159.033,-17198.457,-17230.324,-17274.059,-17289.893,-17324.143,-17348.455,-17333.826,-17323.633,-17292.691,-17266.172,-17238.37,-17195.87,-17203.152,-17233.5,-17290.78,-17423.984,-17547.951,-17635.645,-17686.176,-17600.297,-17484.389,-17445.242,-17373.861,-17281.424,-17223.805,-17210.617,-17265.52,-17400.088,-17596.312,-17750.85,-17822.012,-17861.938,-17883.416,-17765.486,-17522.871,-17356.646,-17234.576,-17169.873,-17175.896,-17155.975,-17202.672,-17252.63,-17266.227,-17334.877,-17365.043,-17324.701,-17308.44,-17337.488,-17302.914,-17213.574,-17146.57,-17091.123,-17098.447,-17150.637,-17191.203,-17221.838,-17265.168,-17310.64,-17328.992,-17365.432,-17397.066,-17410.596,-17417.01,-17401.701,-17387.994,-17358.033,-17335.842,-17330.465,-17328.332,-17350.963,-17439.125,-17631.121,-17800.53,-17854.805,-17770.61,-17554.826,-17407.396,-17382.984,-17418.188,-17490.541,-17490.77,-17456.602,-17441.371,-17377.824,-17275.627,-17208.018,-17202.625,-17203.314,-17224.191,-17236.91,-17236.395,-17325.434,-17420.371,-17457.918,-17481.393,-17476.574,-17414.365,-17348.77,-17347.783,-17356.334,-17386.91,-17465.389,-17581.152,-17684.96,-17639.094,-17493.502,-17345.209,-17222.95,-17175.584,-17153.746,-17158.803,-17235.49,-17319.781,-17365.047,-17377.988,-17338.844,-17293.992,-17300.41,-17296.674,-17319.67,-17394.148,-17436.54,-17479.045,-17507.865,-17497.18,-17462.012,-17393.61,-17395.93,-17470.219,-17508.766,-17470.256,-17354.068,-17278.246,-17277.25,-17297.346,-17390.287,-17513.365,-17600.572,-17690.62,-17704.967,-17585.432,-17495.363,-17423.23
-17275.59,-17226.574,-17270.57,-17291.006,-17311.453,-17349.58,-17452.365,-17498.37,-17420.455,-17359.95,-17316.809,-17244.25,-17172.045,-17136.953,-17157.354,-17237.033,-17299.393,-17320.018,-17381.227,-17431.477,-17445.13,-17452.955,-17432.238,-17407.86,-17388.791,-17368.242,-17343.334,-17343.955,-17407.809,-17462.354,-17441.74,-17382.367,-17309.865,-17251.475,-17279.95,-17353.922,-17409.982,-17474.055,-17498.959,-17492.914,-17529.184,-17589.95,-17679.9,-17742.934,-17688.09,-17603.88,-17499.574,-17312.652,-17208.312,-17264.97,-17357.93,-17417.738,-17447.604,-17481.174,-17493.84,-17456.654,-17447.643,-17508.936,-17556.123,-17599.785,-17698.156,-17714.717,-17582.63,-17416.877,-17345.494,-17346.744,-17282.707,-17222.582,-17211.207,-17172.787,-17189.648,-17274.223,-17325.799,-17319.994,-17303.62,-17358.092,-17452.969,-17495.146,-17487.47,-17467.828,-17497.896,-17586.715,-17605.904,-17510.383,-17430.443,-17417.88,-17445.559,-17490.2,-17471.521,-17418.785,-17359.586,-17282.854,-17263.988,-17269.924,-17292.867,-17326.426,-17327.451,-17351.842,-17369.262,-17377.271,-17383.557,-17357.332,-17352.734,-17351.387,-17351.908,-17375.668,-17383.87,-17403.484,-17454.184,-17483.64,-17472.467,-17476.66,-17486.963,-17478.512,-17482.28,-17479.016,-17499.117,-17513.205,-17485.879,-17549.117,-17638.213,-17605.824,-17493.135,-17366.086,-17320.371,-17358.158,-17378.527,-17374.299,-17362.24,-17347.045,-17324.744,-17290.39,-17287.799,-17319.775,-17343.52,-17374.043,-17423.902,-17447.877,-17440.201,-17461.031,-17514.46,-17505.354,-17448.059,-17446.637,-17467.36,-17486.33,-17517.008,-17514.305,-17498.355,-17499.049,-17484.271,-17467.191,-17484.924,-17495.84,-17508.645,-17564.588,-17596.0,-17612.393,-17666.408,-17682.057,-17606.066,-17501.475,-17422.7,-17346.848,-17289.6,-17329.648,-17446.965,-17517.412,-17522.193,-17574.453,-17687.201,-17704.53,-17582.928,-17460.637,-17374.465,-17305.99,-17292.053,-17295.566,-17282.7,-17299.932,-17312.752,-17292.781,-17303.486,-17324.69,-17375.58,-17466.244,-17539.314,-17622.297,-17702.701,-17783.758,-17796.207,-17643.656,-17476.57,-17404.057,-17375.545,-17360.344,-17369.865,-17432.26,-17505.197,-17511.846,-17501.95,-17483.688,-17409.482,-17374.08,-17364.076,-17350.723,-17386.387,-17440.625,-17515.75,-17541.719,-17507.828,-17502.455,-17501.678,-17488.586,-17445.05,-17399.44,-17392.12,-17397.27,-17433.623,-17466.252,-17438.736,-17395.072,-17396.057,-17435.715,-17463.086,-17469.922,-17470.63,-17491.05,-17538.25,-17558.527,-17579.965,-17633.168,-17645.795,-17601.385,-17541.955,-17478.68,-17417.22,-17398.09,-17394.814,-17385.094,-17434.574,-17479.928,-17463.39,-17498.01,-17624.145,-17692.89,-17636.816,-17596.955,-17549.06,-17432.098,-17378.535,-17399.592,-17453.967,-17483.55,-17471.408,-17508.129,-17539.992,-17573.127,-17635.564,-17659.201,-17660.92,-17643.52,-17586.56,-17484.057,-17419.828,-17424.752,-17436.75,-17455.156,-17420.06,-17379.32,-17410.053,-17462.566,-17515.605,-17527.924,-17498.453,-17467.65,-17462.215,-17491.86,-17510.209,-17507.857,-17519.4,-17521.27,-17477.898,-17481.373,-17593.584,-17654.541,-17624.08,-17627.021,-17586.23,-17500.389,-17484.762,-17503.574,-17549.691,-17566.828,-17559.963,-17577.55,-17526.14,-17509.746,-17594.656,-17639.656,-17617.0,-17643.54,-17739.496,-17750.3,-17802.523,-17912.582,-17805.273,-17652.22,-17578.453,-17443.777,-17338.402,-17365.158,-17456.79,-17475.605,-17436.084,-17443.336,-17491.357,-17541.795,-17571.365,-17557.064,-17484.662,-17411.54,-17331.285,-17248.258,-17302.049,-17459.664,-17635.693,-17871.793,-18140.31,-18234.307,-18089.002,-17988.217,-17934.086,-17704.812,-17424.643,-17273.629,-17230.129,-17215.041,-17233.277,-17280.293,-17293.781,-17295.756,-17304.256,-17304.957,-17309.955,-17306.154,-17313.3,-17338.086,-17354.918,-17389.09,-17416.84,-17443.953,-17541.832,-17669.715,-17755.729,-17836.676,-17953.16,-18019.322,-17974.914,-17855.379,-17705.477,-17579.375,-17500.2,-17427.963,-17297.775,-17208.945,-17219.46,-17201.71,-17205.871,-17295.686,-17430.621,-17549.71,-17595.271,-17624.91,-17661.941,-17702.16,-17704.219,-17667.277,-17642.217,-17595.34,-17543.361,-17507.328,-17576.441,-17687.28,-17666.836,-17635.47,-17584.002,-17502.322,-17503.887,-17513.566,-17543.277,-17542.586,-17483.107,-17503.477,-17481.332,-17374.584,-17342.904,-17453.605,-17680.508,-17803.672,-17773.188,-17731.414,-17674.896,-17586.24,-17481.658,-17395.637,-17328.475,-17289.148,-17278.66,-17257.457,-17259.357,-17275.607,-17295.11,-17334.701,-17372.334,-17420.195,-17427.121,-17358.094,-17308.713,-17294.684,-17309.709,-17371.848,-17425.342,-17493.635,-17551.855,-17542.53,-17542.365,-17574.969,-17608.81,-17558.03,-17437.812,-17393.072,-17406.0,-17481.688,-17602.842,-17649.49,-17625.383,-17518.646,-17390.074,-17337.752,-17330.127,-17470.459,-17746.209,-17890.236,-17819.148,-17622.428,-17433.855,-17299.36,-17167.643,-17108.488,-17152.035,-17261.266,-17350.588,-17366.215,-17439.041,-17554.334,-17682.049,-17785.482,-17700.516,-17565.592,-17489.217,-17379.104,-17291.342,-17289.564,-17349.523,-17350.125,-17271.08,-17287.117,-17391.59,-17495.648,-17617.275,-17683.443,-17679.57,-17684.037,-17684.299,-17628.93,-17569.756,-17598.389,-17595.457,-17500.426,-17350.01,-17160.293,-17088.688,-17102.668,-17140.746,-17223.312,-17286.562,-17354.994,-17365.627,-17357.408,-17421.855,-17450.02,-17444.93,-17430.8,-17367.613,-17337.402,-17428.186,-17510.957,-17500.133,-17503.873,-17516.982,-17538.71,-17627.068,-17712.865,-17650.094,-17459.375,-17296.215,-17154.658,-17105.05,-17174.684,-17197.12,-17209.975,-17215.91,-17177.756,-17158.8,-17125.459,-17110.99,-17131.076,-17146.205,-17177.352,-17216.447,-17259.988,-17280.545,-17305.479,-17368.42,-17399.361,-17446.004,-17523.47,-17548.621,-17568.043,-17580.38,-17533.318,-17443.852,-17367.354,-17370.24,-17380.89,-17327.041,-17250.174,-17201.625,-17243.768,-17353.371,-17461.285,-17574.736,-17737.436,-17840.361,-17710.033,-17486.592,-17343.816,-17275.553,-17264.043,-17216.965,-17157.666,-17146.373,-17137.049,-17167.682,-17211.992,-17222.812,-17239.312,-17236.57,-17212.508,-17204.385,-17190.428,-17177.15,-17201.08,-17255.092,-17326.67,-17407.209,-17494.031,-17570.86,-17623.027,-17649.992,-17620.596,-17536.418,-17421.412,-17323.295,-17254.5,-17189.404,-17196.01,-17245.979,-17291.617,-17378.387,-17454.28,-17460.31,-17394.566,-17297.273,-17223.906,-17211.89,-17237.514,-17264.328,-17332.537,-17409.832,-17457.162,-17465.342,-17413.1,-17345.307,-17290.018,-17239.057,-17219.953,-17317.32,-17446.57,-17465.205,-17466.625,-17453.613,-17363.37,-17295.553,-17305.39,-17427.217,-17651.973,-17755.895,-17720.95,-17779.117,-17761.533,-17548.305,-17372.277,-17183.854,-17008.646,-17003.582,-17038.945,-17080.52,-17130.432,-17148.082,-17192.924,-17240.63,-17313.998,-17436.3,-17525.434,-17596.691,-17668.863,-17705.527,-17711.207,-17695.193,-17641.994,-17533.16,-17403.395,-17302.473,-17241.71,-17272.654,-17390.957,-17461.39,-17477.729,-17520.832,-17516.104,-17439.654,-17388.592,-17325.547,-17221.695,-17172.674,-17156.72,-17148.857,-17196.14,-17241.0,-17266.867,-17316.137,-17348.922,-17338.596,-17317.664,-17315.273,-17320.855,-17317.639,-17304.299,-17282.232,-17277.89,-17276.988,-17274.96,-17320.412,-17373.68,-17395.217,-17400.799,-17420.55,-17533.045,-17687.902,-17728.674,-17658.979,-17620.342,-17721.412,-17837.78,-17754.387,-17567.715,-17408.215,-17263.094,-17260.018,-17380.852,-17426.434,-17425.219,-17423.723,-17339.059,-17199.055,-17087.654,-17052.092,-17066.756,-17099.002,-17179.707,-17259.686,-17329.742,-17410.146,-17493.178,-17614.906,-17663.174,-17574.465,-17459.291,-17356.719,-17289.217,-17288.861,-17322.73,-17363.24,-17446.152,-17537.895,-17557.193,-17538.164,-17489.57,-17430.58,-17415.92,-17373.37,-17308.83,-17348.219,-17519.95,-17679.572,-17724.812,-17714.525,-17648.104,-17552.674,-17439.605,-17296.145,-17258.625,-17315.393,-17340.559,-17307.756,-17243.006,-17227.111,-17252.828,-17253.965,-17241.764,-17240.81,-17267.104,-17310.145,-17393.09,-17531.828,-17638.055,-17679.803,-17648.645,-17593.383,-17603.951,-17574.09,-17468.803,-17351.56,-17217.748,-17138.879,-17136.213,-17168.59,-17207.725,-17236.129,-17270.43,-17292.76,-17309.098,-17321.715,-17319.045,-17310.904,-17301.506,-17327.924,-17368.281,-17402.709,-17465.87,-17559.373,-17680.1,-17745.615,-17733.182,-17783.553,-17834.32,-17749.375,-17664.053,-17581.633,-17438.707,-17337.75,-17206.986,-17107.611,-17118.66,-17120.258,-17197.568,-17267.273,-17235.322,-17222.047,-17207.416,-17227.723,-17282.145,-17367.154,-17501.426,-17550.988,-17507.715,-17439.473,-17400.268,-17458.818,-17565.98,-17634.979,-17642.355,-17558.707,-17445.676,-17435.592,-17450.043,-17449.117,-17514.336,-17582.691,-17623.95,-17661.4,-17617.309,-17466.264,-17378.7,-17332.832,-17239.434,-17288.305,-17418.67,-17537.672,-17709.766,-17860.023,-17925.967,-17769.828,-17485.412,-17277.67,-17123.775,-17098.588,-17118.932,-17090.865,-17143.818,-17208.436,-17211.703,-17233.93,-17296.895,-17384.44,-17477.604,-17560.42,-17575.998,-17549.973,-17616.14,-17672.17,-17640.352,-17688.283,-17757.09,-17714.87,-17600.46,-17431.822,-17328.486,-17365.23,-17437.148,-17547.232,-17715.68,-17866.22,-17887.07,-17744.514,-17535.658,-17341.066,-17235.682,-17194.02,-17240.643,-17369.0,-17394.418,-17410.73,-17395.236,-17271.658,-17231.963,-17248.354,-17352.754,-17507.584,-17558.385,-17598.59,-17584.197,-17508.951,-17474.43,-17403.64,-17312.39,-17290.158,-17307.404,-17301.588,-17274.686,-17331.488,-17451.371,-17500.95,-17571.285,-17719.889,-17815.438,-17794.043,-17667.717,-17468.293,-17270.682,-17214.55,-17269.387,-17311.018,-17336.418,-17314.518,-17304.133,-17378.088,-17503.93,-17606.895,-17591.201,-17570.459,-17629.592,-17699.938,-17822.89,-17937.959,-17941.668,-17839.92,-17562.633,-17222.604,-17090.031,-17088.46,-17080.389,-17153.201,-17279.666,-17396.309,-17496.176,-17544.441,-17572.896,-17540.383,-17409.668,-17310.91,-17347.395,-17461.395,-17497.209,-17500.32,-17589.03,-17620.066,-17598.246,-17635.723,-17616.723,-17621.281,-17755.43,-17871.836,-17957.643,-18063.488,-18058.3,-17773.166,-17388.746,-17132.555,-17018.984,-17193.646,-17450.709,-17511.94,-17510.586,-17463.584,-17346.832,-17193.88,-17125.209,-17141.488,-17153.312,-17251.62,-17319.242,-17306.64,-17310.512,-17312.133,-17304.914,-17268.307,-17247.982,-17261.879,-17310.902,-17384.572,-17459.19,-17572.215,-17673.969,-17742.273,-17800.367,-17850.342,-17861.943,-17790.543,-17697.232,-17620.084,-17547.88,-17532.074,-17608.66,-17635.332,-17531.32,-17436.186,-17362.148,-17337.281,-17417.834,-17466.727,-17469.957,-17467.56,-17407.102,-17324.318,-17238.336,-17142.836,-17073.566,-17060.342,-17168.941,-17326.586,-17424.209,-17524.355,-17560.127,-17538.184,-17579.973,-17590.758,-17590.557,-17594.629,-17470.195,-17275.998,-17103.023,-16982.355,-16959.475,-17015.05,-17092.11,-17177.104,-17291.98,-17421.945,-17511.256,-17553.207,-17621.91,-17702.855,-17693.291,-17591.986,-17529.309,-17530.053,-17451.188,-17340.652,-17277.293,-17215.145,-17188.764,-17193.098,-17221.041,-17248.219,-17216.516,-17190.5,-17217.566,-17234.605,-17256.219,-17314.842,-17312.148,-17285.438,-17285.74,-17261.916,-17250.094,-17224.31,-17192.816,-17189.18,-17221.25,-17292.246,-17324.898,-17374.54,-17471.146,-17539.512,-17609.342,-17675.693,-17662.195,-17598.775,-17537.635,-17423.945,-17316.352,-17254.664,-17179.549,-17138.572,-17134.855,-17179.482,-17244.137,-17253.83,-17242.168,-17239.14,-17286.92,-17317.164,-17279.732,-17275.102,-17316.396,-17435.889,-17600.67,-17684.842,-17661.377,-17523.729,-17342.904,-17184.072,-17076.213,-17103.445,-17202.617,-17293.182,-17391.133,-17453.814,-17478.582,-17496.125,-17505.627,-17456.133,-17313.467,-17210.508,-17208.705,-17225.422,-17220.316,-17217.213,-17306.742,-17448.592,-17576.336,-17758.92,-17918.848,-17936.86,-17868.852,-17721.533,-17421.537,-17169.26,-17175.352,-17267.535,-17319.916,-17360.959,-17395.496,-17400.314,-17312.527,-17236.822,-17245.49,-17220.576,-17194.729,-17209.629,-17227.682,-17269.277,-17287.527,-17318.06,-17359.139,-17331.49,-17324.34,-17312.43,-17289.145,-17331.092,-17374.988,-17411.959,-17418.258,-17375.018,-17330.275,-17293.918,-17262.795,-17246.54,-17289.309,-17363.898,-17428.121,-17487.984,-17513.164,-17496.617,-17457.293,-17379.45,-17270.254,-17217.469,-17200.623,-17183.361,-17224.295,-17261.633,-17305.723,-17363.98,-17371.553,-17406.97,-17462.68,-17497.316,-17521.596,-17544.229,-17598.29,-17649.402,-17633.746,-17493.877,-17330.246,-17221.996,-17110.162,-17117.152,-17213.797,-17248.201,-17291.4,-17346.232,-17384.488,-17403.89,-17388.412,-17377.822,-17354.732,-17316.568,-17280.965,-17245.87,-17230.61,-17222.947,-17215.582,-17235.51,-17336.396,-17484.168,-17591.33,-17700.979,-17796.588,-17829.4,-17876.088,-17885.258,-17825.48,-17753.998,-17573.648,-17349.145,-17234.541,-17168.123,-17097.703,-17083.674,-17195.045,-17371.139,-17526.445,-17627.2,-17684.29,-17713.762,-17623.326,-17488.3,-17382.822,-17265.42,-17209.492,-17180.312,-17191.072,-17256.742,-17307.227,-17374.041,-17373.719
-17323.13,-17319.324,-17305.617,-17332.168,-17414.455,-17518.469,-17647.227,-17662.414,-17599.416,-17583.234,-17505.205,-17409.432,-17390.588,-17376.342,-17392.715,-17447.256,-17445.617,-17408.707,-17446.727,-17480.918,-17421.172,-17386.24,-17361.643,-17317.186,-17305.695,-17233.809,-17151.049,-17155.143,-17191.934,-17264.135,-17310.951,-17306.51,-17320.664,-17338.72,-17347.465,-17329.709,-17330.682,-17374.229,-17401.842,-17444.967,-17508.312,-17620.545,-17750.416,-17720.986,-17623.654,-17610.02,-17545.834,-17384.367,-17226.0,-17143.498,-17199.023,-17324.828,-17425.467,-17519.502,-17626.826,-17689.082,-17666.334,-17642.902,-17628.111,-17559.504,-17445.453,-17297.799,-17161.213,-17129.928,-17238.727,-17366.0,-17449.871,-17492.127,-17458.127,-17460.445,-17471.322,-17398.486,-17344.78,-17290.695,-17234.389,-17250.146,-17286.258,-17314.564,-17331.855,-17335.926,-17343.297,-17324.223,-17299.29,-17300.95,-17272.889,-17238.117,-17271.658,-17376.256,-17606.27,-17920.73,-18084.102,-18073.1,-17942.832,-17603.713,-17299.826,-17194.66,-17147.307,-17245.504,-17348.018,-17368.258,-17461.297,-17462.852,-17407.975,-17383.697,-17323.725,-17299.895,-17310.287,-17327.393,-17316.996,-17310.473,-17304.455,-17260.043,-17282.77,-17357.438,-17420.473,-17434.996,-17452.557,-17513.926,-17486.322,-17452.031,-17470.764,-17478.867,-17517.203,-17549.293,-17559.057,-17490.902,-17364.92,-17279.355,-17211.047,-17227.22,-17297.34,-17381.568,-17501.455,-17545.637,-17526.447,-17453.945,-17380.182,-17419.99,-17470.107,-17460.467,-17424.693,-17385.215,-17331.428,-17260.873,-17227.982,-17220.166,-17232.008,-17257.523,-17264.607,-17297.244,-17339.492,-17342.129,-17348.916,-17364.854,-17377.316,-17450.244,-17527.838,-17548.295,-17607.287,-17666.58,-17706.488,-17773.717,-17778.84,-17751.412,-17658.63,-17472.727,-17350.822,-17220.145,-17102.107,-17105.54,-17127.516,-17206.416,-17310.715,-17369.934,-17446.535,-17470.496,-17455.375,-17485.355,-17508.227,-17513.447,-17511.25,-17449.512,-17378.996,-17409.3,-17496.475,-17551.584,-17547.773,-17510.95,-17473.887,-17398.139,-17351.146,-17398.48,-17444.016,-17470.912,-17499.62,-17510.455,-17527.164,-17557.879,-17544.016,-17494.602,-17475.066,-17437.44,-17387.684,-17363.363,-17331.254,-17295.414,-17291.31,-17376.115,-17500.213,-17607.766,-17675.967,-17648.525,-17589.793,-17554.63,-17543.186,-17507.94,-17465.992,-17508.809,-17534.066,-17532.756,-17606.484,-17717.877,-17802.38,-17822.191,-17823.643,-17765.943,-17568.904,-17358.629,-17237.59,-17223.693,-17329.379,-17450.014,-17487.822,-17495.188,-17506.764,-17480.668,-17458.066,-17475.578,-17501.965,-17538.842,-17547.363,-17479.396,-17371.408,-17323.398,-17355.695,-17383.324,-17414.748,-17464.158,-17520.879,-17588.781,-17609.188,-17590.387,-17572.744,-17537.66,-17456.795,-17388.4,-17410.422,-17440.482,-17462.504,-17537.133,-17622.375,-17680.986,-17634.732,-17507.33,-17467.58,-17512.088,-17515.062,-17447.234,-17405.367,-17409.281,-17394.81,-17422.75,-17532.055,-17671.2,-17778.473,-17815.209,-17787.137,-17678.736,-17565.525,-17506.764,-17397.156,-17296.174,-17277.41,-17235.424,-17256.922,-17358.838,-17410.219,-17475.69,-17543.205,-17562.857,-17547.824,-17490.09,-17458.926,-17454.98,-17450.457,-17464.707,-17494.172,-17505.37,-17472.398,-17455.172,-17431.67,-17388.47,-17407.725,-17445.014,-17478.791,-17518.41,-17523.568,-17499.365,-17459.21,-17447.49,-17469.719,-17502.38,-17557.137,-17627.16,-17714.877,-17778.021,-17771.17,-17737.5,-17698.67,-17626.775,-17549.936,-17484.164,-17411.846,-17364.371,-17331.412,-17351.375,-17474.566,-17641.854,-17789.176,-17823.09,-17779.236,-17748.281,-17730.508,-17697.812,-17519.164,-17321.115,-17301.31,-17308.354,-17291.621,-17322.533,-17400.402,-17485.262,-17513.914,-17499.998,-17465.713,-17446.627,-17449.799,-17476.176,-17576.805,-17711.057,-17848.91,-17999.697,-18046.15,-17853.158,-17608.387,-17521.389,-17431.16,-17321.621,-17311.316,-17329.81,-17359.262,-17444.855,-17562.26,-17619.537,-17621.053,-17646.002,-17666.072,-17653.592,-17618.043,-17600.195,-17631.87,-17647.398,-17648.25,-17648.924,-17618.465,-17647.576,-17735.25,-17761.957,-17750.168,-17723.014,-17600.787,-17419.35,-17342.502,-17421.066,-17559.186,-17613.482,-17554.713,-17505.67,-17485.916,-17441.99,-17414.5,-17436.172,-17466.236,-17511.11,-17576.176,-17575.117,-17538.693,-17526.797,-17540.68,-17626.105,-17722.148,-17765.994,-17744.992,-17670.154,-17637.037,-17651.855,-17679.738,-17678.0,-17589.848,-17447.006,-17301.152,-17238.621,-17254.81,-17244.297,-17242.184,-17282.156,-17328.375,-17386.225,-17449.799,-17526.502,-17607.025,-17631.71,-17641.479,-17715.975,-17779.107,-17760.688,-17699.828,-17637.824,-17624.822,-17625.408,-17569.443,-17536.594,-17583.492,-17575.674,-17486.902,-17454.99,-17418.834,-17381.854,-17435.152,-17469.521,-17487.842,-17504.434,-17494.258,-17488.871,-17486.723,-17533.13,-17595.006,-17676.047,-17732.865,-17666.758,-17601.42,-17570.463,-17532.744,-17502.021,-17485.637,-17532.113,-17599.588,-17650.168,-17676.887,-17649.342,-17680.455,-17776.555,-17746.19,-17698.854,-17720.354,-17636.004,-17589.496,-17648.166,-17618.209,-17537.639,-17463.002,-17372.717,-17301.188,-17299.404,-17361.996,-17420.268,-17479.744,-17564.516,-17622.383,-17667.445,-17740.408,-17745.178,-17635.604,-17527.58,-17508.537,-17510.072,-17458.688,-17451.703,-17504.098,-17493.691,-17483.152,-17559.084,-17622.262,-17632.34,-17613.06,-17638.414,-17725.883,-17683.908,-17598.223,-17549.932,-17438.443,-17468.262,-17586.064,-17600.129,-17602.957,-17614.715,-17604.105,-17568.76,-17581.875,-17603.346,-17550.777,-17514.48,-17513.865,-17537.89,-17551.02,-17527.365,-17509.113,-17467.33,-17406.564,-17386.79,-17396.303,-17439.951,-17589.902,-17740.537,-17757.19,-17726.928,-17681.262,-17573.736,-17462.096,-17432.803,-17470.484,-17526.92,-17587.918,-17617.457,-17625.27,-17579.488,-17493.361,-17496.46,-17497.213,-17461.742,-17503.703,-17529.484,-17524.621,-17519.322,-17492.162,-17509.73,-17551.127,-17601.205,-17649.105,-17646.924,-17641.164,-17674.613,-17741.943,-17816.373,-17848.172,-17794.766,-17713.205,-17618.146,-17494.459,-17496.213,-17585.137,-17619.555,-17592.893,-17485.475,-17433.736,-17464.98,-17445.973,-17423.043,-17443.89,-17516.006,-17620.29,-17684.225,-17672.785,-17608.295,-17526.195,-17445.086,-17422.598,-17444.8,-17509.375,-17662.139,-17788.037,-17839.574,-17849.83,-17740.299,-17557.52,-17494.201,-17535.238,-17548.791,-17546.725,-17540.104,-17587.402,-17718.518,-17843.482,-17925.78,-17924.59,-17856.148,-17740.322,-17606.697,-17498.879,-17377.562,-17335.906,-17376.828,-17432.012,-17547.285,-17628.5,-17646.922,-17629.488,-17566.06,-17519.668,-17466.557,-17459.459,-17515.746,-17534.73,-17570.625,-17581.25,-17577.348,-17694.623,-17879.975,-18039.516,-18045.94,-17955.791,-17882.314,-17733.486,-17601.662,-17473.361,-17323.816,-17353.938,-17444.166,-17501.68,-17573.725,-17595.824,-17630.72,-17628.598,-17523.88,-17438.023,-17412.115,-17404.25,-17379.678,-17388.951,-17467.855,-17550.705,-17612.06,-17640.244,-17632.941,-17646.018,-17645.932,-17589.186,-17584.057,-17610.39,-17589.11,-17594.68,-17624.875,-17644.473,-17622.848,-17541.809,-17472.926,-17429.594,-17424.36,-17496.568,-17619.994,-17715.033,-17712.22,-17652.945,-17580.135,-17532.465,-17563.941,-17612.271,-17680.703,-17777.512,-17830.14,-17909.074,-17979.346,-17973.35,-17993.635,-17930.793,-17707.068,-17541.354,-17462.465,-17351.973,-17322.396,-17446.395,-17605.178,-17709.164,-17726.895,-17719.225,-17685.65,-17577.303,-17505.01,-17526.445,-17629.64,-17745.486,-17809.365,-17890.041,-17889.008,-17745.537,-17619.754,-17544.28,-17497.477,-17475.125,-17491.307,-17616.365,-17772.738,-17843.945,-17834.17,-17796.23,-17802.336,-17769.29,-17629.295,-17488.227,-17356.896,-17294.12,-17362.904,-17446.225,-17522.154,-17595.287,-17608.014,-17577.678,-17503.066,-17444.1,-17485.375,-17538.756,-17557.104,-17571.895,-17587.594,-17607.572,-17613.191,-17628.785,-17675.605,-17735.66,-17744.623,-17681.467,-17601.426,-17507.121,-17457.945,-17458.436,-17453.828,-17477.79,-17515.625,-17568.914,-17626.559,-17660.299,-17734.307,-17819.436,-17833.775,-17817.186,-17748.775,-17638.64,-17628.26,-17647.127,-17662.932,-17718.725,-17675.63,-17614.744,-17598.66,-17530.945,-17531.785,-17640.521,-17687.338,-17667.61,-17711.732,-17727.527,-17638.62,-17580.562,-17595.143,-17627.37,-17707.68,-17862.012,-17948.533,-17919.078,-17851.531,-17766.074,-17727.844,-17749.662,-17779.086,-17819.617,-17901.97,-17905.176,-17703.887,-17491.027,-17374.496,-17296.94,-17319.305,-17370.81,-17403.03,-17451.656,-17447.863,-17451.494,-17479.357,-17506.59,-17576.943,-17612.303,-17632.824,-17647.26,-17637.158,-17656.932,-17650.998,-17702.783,-17835.418,-17884.016,-17857.121,-17800.223,-17715.521,-17616.436,-17524.414,-17483.984,-17488.613,-17498.574,-17491.102,-17466.633,-17456.793,-17474.543,-17495.748,-17570.998,-17716.395,-17833.584,-17864.898,-17819.56,-17839.172,-17937.46,-17925.336,-17863.465,-17845.158,-17778.52,-17700.44,-17732.809,-17829.6,-17929.209,-17987.979,-17850.96,-17603.08,-17412.78,-17314.95,-17311.102,-17282.582,-17292.193,-17354.84,-17406.826,-17522.602,-17592.97,-17631.637,-17697.865,-17695.406,-17643.387,-17613.426,-17644.17,-17658.014,-17628.47,-17614.693,-17581.164,-17519.701,-17480.188,-17480.398,-17491.508,-17494.678,-17491.783,-17500.29,-17519.045,-17515.842,-17519.652,-17544.436,-17564.863,-17584.516,-17604.158,-17640.377,-17694.78,-17747.47,-17797.383,-17823.545,-17801.701,-17744.857,-17681.592,-17645.916,-17661.346,-17686.145,-17684.271,-17687.975,-17670.19,-17586.086,-17521.934,-17532.684,-17555.047,-17574.36,-17591.342,-17633.637,-17734.016,-17761.967,-17680.4,-17606.512,-17521.703,-17431.768,-17431.71,-17483.098,-17512.791,-17534.42,-17559.03,-17572.389,-17582.105,-17596.316,-17595.63,-17607.826,-17694.627,-17822.736,-17885.467,-17886.469,-17903.244,-17865.21,-17769.28,-17777.008,-17827.066,-17802.545,-17779.742,-17749.72,-17656.13,-17567.38,-17560.246,-17606.197,-17628.898,-17648.973,-17678.729,-17666.37,-17656.303,-17651.033,-17604.326,-17581.947,-17560.477,-17521.328,-17547.033,-17569.266,-17558.016,-17575.105,-17630.72,-17757.506,-17886.625,-17919.98,-17863.664,-17763.043,-17680.762,-17630.43,-17653.457,-17839.943,-18144.088,-18345.053,-18283.752,-18043.58,-17793.465,-17590.672,-17437.86,-17416.297,-17482.463,-17503.191,-17550.145,-17685.012,-17859.89,-17974.953,-17970.596,-17932.951,-17808.893,-17593.693,-17446.666,-17354.49,-17328.115,-17326.264,-17297.053,-17356.598,-17449.855,-17548.56,-17641.83,-17711.068,-17828.223,-17854.062,-17803.291,-17769.377,-17693.93,-17647.943,-17622.566,-17550.725,-17489.867,-17499.31,-17548.977,-17605.31,-17618.662,-17575.525,-17553.766,-17529.834,-17521.842,-17560.72,-17633.715,-17782.45,-17959.06,-18051.953,-18000.684,-17941.855,-17939.152,-17900.158,-17878.574,-17864.646,-17766.412,-17607.414,-17515.32,-17513.193,-17535.021,-17573.725,-17551.43,-17483.186,-17465.068,-17479.434,-17494.707,-17509.492,-17505.906,-17478.498,-17469.691,-17473.69,-17526.125,-17638.824,-17725.113,-17804.0,-17890.273,-17943.389,-17978.064,-18071.988,-18213.695,-18280.848,-18225.945,-18072.127,-17934.842,-17844.719,-17807.68,-17912.176,-17963.512,-17811.4,-17596.361,-17436.85,-17370.65,-17380.918,-17431.557,-17452.035,-17469.73,-17484.967,-17477.871,-17552.977,-17609.982,-17625.932,-17666.246,-17630.637,-17565.303,-17514.719,-17477.066,-17463.896,-17459.607,-17509.428,-17587.791,-17650.904,-17706.637,-17741.988,-17744.404,-17725.705,-17703.56,-17698.488,-17721.59,-17703.367,-17654.879,-17626.19,-17551.656,-17484.557,-17461.766,-17446.537,-17479.434,-17508.068,-17531.65,-17582.018,-17606.418,-17617.602,-17620.225,-17645.488,-17694.066,-17712.018,-17733.135,-17751.2,-17747.533,-17742.377,-17740.523,-17728.498,-17672.592,-17592.363,-17518.145,-17493.783,-17554.861,-17629.533,-17680.77,-17746.023,-17783.25,-17761.752,-17749.355,-17723.639,-17669.72,-17665.338,-17679.436,-17677.215,-17629.66,-17528.053,-17494.818,-17534.746,-17581.91,-17628.154,-17629.234,-17610.678,-17618.48,-17649.248,-17668.6,-17640.691,-17636.44,-17652.076,-17624.504,-17598.863,-17580.85,-17573.32,-17577.693,-17569.227,-17571.066,-17570.506,-17572.266,-17584.236,-17592.6,-17626.65,-17661.27,-17671.432,-17670.016,-17653.13,-17651.732,-17694.938,-17764.46,-17820.36,-17862.27,-17945.795,-18037.137,-18037.748,-17987.355,-17894.99,-17730.105,-17621.523,-17556.768,-17481.662,-17480.082,-17492.709,-17523.969,-17623.166,-17714.82,-17776.791,-17743.799,-17657.863,-17637.406,-17612.92,-17594.832,-17613.902,-17613.13,-17610.21,-17620.018,-17651.383,-17688.297,-17692.777,-17655.686,-17633.852,-17677.613,-17697.07,-17693.664,-17716.111,-17713.96,-17688.738,-17659.316,-17657.652,-17696.494,-17750.158,-17749.498,-17664.215,-17599.365,-17590.98,-17629.568,-17668.105,-17685.953,-17735.809,-17762.023,-17803.291,-17846.68,-17839.834,-17891.832,-17952.29,-17993.902,-18003.66,-17944.26,-17881.945,-17762.38,-17684.617,-17696.615,-17648.678,-17605.121,-17579.24,-17559.412,-17574.502,-17570.88,-17593.906
