SampleData
0.0,49377340.0,220553140.0,403099840.0,458790660.0,468933920.0,459297250.0,439621900.0,461763740.0,457250620.0,464075800.0,487201950.0,486049900.0,510165660.0,516750850.0,524116900.0,536641300.0,530174080.0,536267300.0,525823680.0,518511740.0,510022620.0,493617540.0,487026880.0,471899000.0,466115100.0,460096700.0,456672420.0,460872300.0,462803900.0,473236860.0,481348900.0,492617760.0,504310700.0,512651940.0,522188900.0,525601250.0,528405060.0,526695970.0,521636900.0,515260900.0,505291360.0,496270700.0,485974800.0,477393340.0,470520670.0,465363740.0,464165660.0,465039970.0,469493700.0,475883200.0,483887520.0,493089540.0,501814600.0,510114100.0,516267620.0,520355420.0,521866850.0,520590530.0,516959140.0,511033250.0,503832600.0,495608580.0,487593900.0,480477120.0,474687550.0,471004000.0,469512220.0,470712220.0,474055840.0,479198660.0,485806180.0,492951840.0,500186430.0,506621300.0,511760030.0,515056160.0,516174720.0,515321380.0,512284830.0,507615900.0,501856770.0,495337500.0,488962300.0,483311840.0,478873700.0,475993540.0,474788260.0,475521150.0,478140260.0,482231420.0,487341300.0,492985730.0,498598750.0,503642900.0,507656500.0,510280900.0,511218500.0,510436450.0,508229800.0,504693700.0,500181820.0,495276830.0,490361400.0,486005020.0,482556300.0,480291200.0,479370880.0,479790430.0,481723500.0,484821220.0,488737630.0,493107970.0,497290000.0,501018530.0,503842560.0,505624930.0,506507500.0,506189500.0,504707400.0,502271460.0,498982240.0,495229630.0,491530560.0,488298460.0,485804580.0,484128930.0,483431170.0,483811330.0,485171500.0,487446430.0,490207500.0,493241000.0,496384600.0,499073250.0,501231330.0,502686460.0,503251650.0,502893000.0,501639700.0,499885860.0,497579260.0,494979840.0,492505860.0,490214340.0,488463520.0,487283300.0,486792700.0,487059000.0,487922200.0,489467870.0,491364670.0,493426400.0,495518530.0,497282720.0,498686940.0,499661660.0,500140130.0,499965980.0,499105120.0,497890340.0,496385950.0,494587260.0,492913800.0,491671520.0,490684480.0,489972300.0,489679400.0,489797120.0,490291650.0,491098200.0,492265500.0,493544670.0,494775460.0,495912900.0,496726140.0,497315460.0,497585760.0,497475840.0,497056740.0,496360030.0,495634850.0,494741120.0,493786620.0,493044350.0,492415740.0,492014370.0,491821920.0,491850400.0,492093730.0,492393400.0,492911870.0,493581600.0,494186980.0,494710100.0,495121150.0,495423330.0,495557950.0,495533340.0,495402240.0,495150000.0,494813630.0,494482200.0,494223300.0,493982660.0,493821950.0,493736800.0,493606750.0,493560320.0,493592220.0,493635400.0,493682430.0,493728060.0,493865820.0,493930270.0,493883650.0,493888450.0,493919400.0,493940670.0,493940770.0,494039650.0,494183360.0,494304900.0,494508740.0,494588450.0,494614940.0,494702460.0,494664350.0,494683000.0,494709400.0,494515520.0,494185860.0,493795970.0,493473760.0,493192450.0,492953180.0,492871000.0,492849600.0,492881400.0,493017060.0,493328400.0,493811520.0,494310050.0,494767900.0,495145540.0,495472800.0,495708700.0,495745300.0,495615870.0,495302850.0,494882700.0,494425540.0,493861980.0,493267400.0,492703780.0,492274980.0,492079000.0,492008480.0,492110700.0,492381800.0,492832200.0,493523400.0,494200830.0,494879420.0,495563500.0,496083900.0,496470500.0,496570800.0,496426300.0,496111040.0,495515840.0,494797980.0,494041380.0,493258660.0,492546140.0,491949800.0,491523680.0,491363900.0,491491100.0,491850300.0,492461470.0,493203230.0,493995500.0,494871800.0,495618270.0,496199100.0,496622600.0,496703330.0,496566820.0,496270100.0,495736930.0,495073570.0,494230940.0,493285730.0,492443740.0,491745470.0,491304200.0,491098750.0,491175140.0,491668300.0,492341000.0,493128670.0,494071000.0,494974900.0,495790850.0,496448900.0,496887740.0,497091500.0,496960450.0,496523940.0,495855400.0,495045000.0,494162200.0,493246700.0,492390400.0,491661760.0,491200260.0,491054430.0,491136200.0,491467170.0,492082600.0,492923650.0,493889660.0,494851000.0,495690720.0,496370430.0,496846140.0,497071260.0,497021120.0,496674340.0,496041000.0,495176900.0,494260600.0,493352740.0,492433100.0,491694560.0,491265280.0,491114400.0,491201950.0,491496130.0,492010000.0,492764130.0,493710000.0,494727070.0,495691740.0,496456930.0,496896130.0,497014460.0,496879230.0,496531420.0,495890000.0,495016800.0,494209800.0,493378020.0,492452600.0,491749820.0,491318700.0,491186750.0,491332100.0,491650530.0,492268100.0,493055800.0,493906200.0,494815870.0,495602780.0,496248100.0,496660200.0,496749500.0,496622200.0,496290780.0,495745250.0,495041440.0,494245570.0,493436160.0,492703840.0,492057860.0,491584800.0,491429120.0,491510700.0,491799520.0,492321100.0,493010880.0,493788300.0,494503680.0,495158100.0,495757860.0,496177630.0,496408300.0,496416930.0,496157630.0,495637250.0,494942200.0,494273570.0,493610000.0,492895230.0,492289440.0,491876450.0,491699870.0,491786880.0,492104420.0,492603500.0,493217060.0,493908380.0,494580220.0,495204670.0,495762620.0,496109380.0,496238400.0,496167970.0,495889380.0,495442240.0,494865060.0,494250080.0,493606500.0,492951460.0,492427400.0,492086560.0,491911870.0,491941300.0,492197630.0,492670620.0,493290400.0,493886620.0,494452130.0,495036580.0,495457250.0,495723100.0,495911420.0,495862080.0,495624670.0,495267000.0,494769820.0,494273400.0,493752500.0,493180220.0,492696220.0,492349250.0,492206750.0,492287800.0,492526050.0,492914700.0,493374660.0,493856400.0,494370240.0,494834340.0,495230080.0,495519500.0,495640450.0,495661660.0,495516060.0,495125700.0,494642530.0,494173500.0,493701100.0,493209470.0,492789020.0,492583170.0,492540700.0,492528500.0,492649800.0,493003740.0,493431200.0,493834850.0,494231870.0,494634240.0,494978720.0,495141630.0,495273500.0,495392770.0,495239520.0,494886080.0,494458530.0,494010270.0,493634270.0,493220000.0,492795700.0,492578180.0,492555300.0,492627600.0,492813730.0,493105120.0,493429820.0,493765400.0,494128220.0,494463520.0,494697760.0,494902460.0,495020300.0,494973500.0,494911900.0,494718820.0,494403230.0,494168200.0,493869020.0,493480670.0,493146050.0,493022430.0,493001250.0,492936400.0,493053820.0,493224220.0,493391460.0,493712540.0,494047840.0,494330720.0,494571650.0,494818880.0,494862530.0,494732450.0,494705600.0,494558050.0,494364200.0,494193380.0,493942460.0,493707230.0,493432580.0,493297760.0,493276130.0,493260600.0,493356200.0,493466340.0,493709000.0,493990530.0,494193200.0,494427680.0,494535420.0,494651230.0,494753200.0,494664480.0,494575650.0,494388640.0,494174980.0,494076400.0,493944860.0,493844930.0,493733600.0,493633570.0,493556450.0,493463230.0,493552060.0,493662340.0,493765600.0,493950700.0,494074880.0,494272420.0,494411970.0,494474140.0,494591800.0,494539700.0,494490270.0,494449100.0,494287970.0,494209700.0,494087330.0,493930940.0,493810560.0,493637920.0,493601400.0,493687200.0,493694370.0,493734880.0,493888420.0,493996000.0,494089600.0,494221600.0,494342300.0,494381700.0,494317280.0,494381980.0,494421000.0,494319500.0,494272450.0,494152900.0,494075680.0,494040740.0,493911940.0,493791000.0,493655200.0,493621630.0,493679100.0,493765150.0,493922850.0,494036580.0,494083100.0,494120000.0,494229340.0,494275230.0,494226140.0,494301380.0,494305300.0,494211800.0,494164000.0,494080600.0,494090980.0,494094370.0,494014800.0,493995040.0,493904600.0,493854800.0,493887520.0,493842050.0,493910000.0,494019040.0,493989280.0,493986750.0,494030530.0,494082100.0,494076030.0,494075070.0,494206700.0,494148200.0,494012130.0,494071140.0,494081150.0,494061800.0,494071700.0,494114750.0,494084770.0,493991680.0,494013440.0,493917600.0,493897920.0,494003420.0,493945100.0,493970240.0,494049500.0,494111700.0,494091740.0,494014100.0,494080480.0,494012930.0,493995040.0,494100160.0,494044400.0,494080400.0,494107970.0,494110980.0,494077730.0,493882180.0,493899460.0,493942400.0,493921820.0,493976640.0,493876800.0,493870200.0,493962340.0,493988580.0,494008960.0,493937760.0,493954180.0,494027140.0,494012000.0,494078430.0,494158850.0,494104830.0,493999300.0,493972350.0,494030430.0,493989400.0,493912700.0,493988540.0,493978850.0,493979700.0,494062720.0,493983940.0,493999520.0,494024830.0,493994270.0,493991680.0,493907170.0,493951680.0,493940580.0,493980100.0,494125220.0,494069300.0,494093340.0,494076030.0,494090600.0,494182240.0,494009400.0,493944160.0,494014300.0,493957380.0,493903330.0,493895870.0,493868380.0,493874880.0,493892220.0,493860000.0,493883520.0,493863330.0,493884540.0,493969120.0,494010940.0,494130370.0,494097400.0,493998750.0,494042720.0,494091000.0,494041250.0,493856450.0,493882200.0,493999900.0,493906240.0,493876800.0,493908100.0,493938600.0,493925630.0,493845760.0,493858750.0,493837860.0,493838850.0,493942200.0,494005250.0,494137820.0,494195300.0,494116350.0,494152220.0,494173060.0,494106430.0,493988380.0,493938750.0,494037920.0,493979840.0,493908100.0,493916540.0,493801950.0,493780700.0,493819700.0,493845280.0,493845920.0,493809660.0,493925440.0,493994500.0,494033760.0,494117020.0,494054240.0,494016220.0,493979900.0,493952420.0,493949300.0,493847420.0,493873300.0,493862600.0,493773120.0,493877570.0,493905000.0,493859040.0,493872960.0,493857340.0,493879580.0,493854340.0,493914720.0,494131780.0,494191740.0,494152100.0,494122240.0,494103580.0,494164640.0,494230880.0,494220000.0,494059100.0,493914530.0,493868160.0,493775460.0,493780860.0,493804960.0,493776320.0,493827500.0,493879330.0,493975600.0,493970000.0,493915870.0,494051840.0,494082050.0,494043900.0,494042500.0,493990080.0,494032960.0,494080500.0,494160300.0,494194980.0,494029220.0,493967740.0,493935800.0,493877250.0,493892670.0,493777200.0,493752160.0,493847070.0,493856260.0,493927970.0,493945470.0,493944930.0,494046560.0,494023650.0,494000260.0,494091940.0,494109150.0,494112480.0,494150820.0,494153100.0,494035940.0,493853730.0,493885400.0,493919200.0,493845700.0,493909280.0,493935550.0,493983970.0,494051620.0,494017000.0,494032220.0,494005120.0,494039780.0,494100130.0,494057730.0,494137280.0,494186140.0,494135780.0,494127740.0,494145380.0,494137600.0,493970700.0,493869700.0,493958750.0,493960930.0,493951460.0,493989900.0,493982370.0,494006100.0,494004580.0,493957920.0,493937440.0,493918880.0,493924400.0,493984220.0,494081540.0,494118700.0,494090140.0,494072000.0,494036380.0,494021730.0,493976030.0,493913020.0,493928770.0,493874180.0,493823780.0,493852060.0,493816700.0,493810780.0,493862720.0,493916450.0,493971970.0,493936740.0,493882620.0,493906080.0,493898880.0,493895100.0,493901600.0,493865660.0,493901500.0,493913920.0,493859140.0,493801900.0,493743740.0,493774980.0,493787520.0,493813920.0,493862080.0,493819070.0,493847740.0,493891100.0,493915800.0,493894100.0,493807200.0,493854400.0,493881300.0,493880030.0,493921150.0,493892770.0,493880580.0,493826370.0,493791170.0,493820830.0,493796900.0,493802660.0,493783230.0,493756770.0,493762880.0,493728700.0,493738100.0,493712160.0,493721760.0,493849820.0,493870560.0,493844830.0,493833760.0,493815780.0,493824800.0,493798200.0,493808160.0,493812500.0,493788860.0,493812400.0,493788580.0,493776600.0,493796220.0,493744540.0,493733540.0,493769020.0,493755230.0,493798500.0,493836500.0,493779680.0,493748860.0,493745470.0,493784300.0,493816320.0,493814980.0,493816130.0,493721150.0,493649570.0,493646430.0,493700200.0,493838100.0,493821760.0,493713800.0,493725060.0,493760030.0,493727550.0,493700130.0,493726750.0,493743970.0,493788130.0,493803700.0,493752860.0,493776420.0,493773440.0,493744600.0,493800160.0,493806660.0,493796130.0,493786720.0,493753660.0,493787000.0,493775140.0,493727420.0,493719680.0,493709760.0,493739970.0,493754660.0,493751170.0,493796580.0,493809760.0,493753660.0,493735400.0,493783550.0,493802500.0,493757470.0,493709470.0,493762500.0,493815520.0,493756130.0,493720350.0,493736320.0,493735550.0,493700830.0,493689950.0,493716380.0,493688740.0,493631970.0,493650180.0,493748130.0,493773440.0,493754720.0,493777380.0,493754500.0,493745200.0,493687200.0,493609000.0,493681800.0,493702660.0,493653570.0,493675420.0,493694500.0,493718050.0,493719780.0,493701860.0,493747600.0,493797120.0,493794620.0,493761920.0,493755550.0,493798530.0,493801920.0,493741980.0,493723420.0,493771230.0,493787040.0,493768480.0,493764030.0,493761200.0,493788830.0,493791300.0,493755420.0,493756640.0,493732350.0,493706050.0,493706900.0,493709100.0,493749900.0,493747940.0,493719000.0,493742270.0,493744260.0,493736000.0,493767300.0,493796130.0,493815940.0,493838660.0,493815260.0,493765820.0,493733700.0,493692030.0,493680320.0,493682780.0,493688480.0,493747620.0,493735840.0,493697920.0,493768540.0,493785100.0,493740000.0,493724670.0,493709060.0,493752420.0,493776060.0,493729000.0,493726140.0,493723740.0,493732160.0,493796900.0,493817700.0,493805980.0,493814660.0,493779800.0,493722340.0,493714300.0,493722180.0,493743500.0,493736600.0,493707100.0,493756350.0,493756350.0,493698620.0,493713100.0,493734530.0,493749800.0,493729500.0,493700800.0,493745380.0,493751230.0,493728060.0,493752220.0,493762430.0,493768670.0,493752960.0,493693220.0,493692960.0,493726100.0,493717100.0,493733380.0,493765600.0,493748480.0,493707420.0,493685470.0,493719800.0,493761760.0,493737340.0,493725860.0,493743740.0,493725900.0,493728670.0,493745120.0,493752000.0,493778700.0,493767300.0,493737540.0,493725150.0,493702900.0,493690700.0,493680160.0,493696320.0,493713950.0,493668200.0,493650620.0,493690180.0,493701800.0,493655400.0,493642530.0,493724100.0,493757660.0,493723520.0,493711700.0,493723000.0,493762600.0,493747070.0,493699140.0,493712100.0,493726500.0,493732350.0,493714050.0,493696800.0,493726980.0,493725060.0,493709500.0,493719580.0,493731740.0,493736450.0,493713440.0,493704480.0,493720930.0,493684030.0,493637020.0,493651200.0,493649180.0,493634300.0,493601250.0,493553600.0,493617250.0,493691300.0,493715140.0,493775780.0,493804450.0,493770780.0,493717760.0,493678430.0,493696420.0,493740320.0,493745060.0,493775520.0,493789500.0,493727800.0,493737060.0,493745060.0,493722370.0,493731100.0,493693570.0,493699780.0,493715200.0,493673760.0,493634000.0,493610000.0,493663840.0,493722270.0,493766400.0,493783680.0,493708220.0,493701060.0,493742000.0,493731940.0,493715100.0,493670980.0,493671230.0,493711040.0,493703500.0,493697150.0,493688800.0,493688260.0,493706720.0,493656300.0,493568830.0,493550600.0,493609020.0,493651900.0,493645340.0,493685500.0,493733020.0,493714340.0,493701200.0,493714140.0,493723070.0,493694980.0,493687600.0,493744700.0,493751940.0,493727070.0,493712960.0,493701980.0,493734200.0,493748770.0,493743780.0,493763400.0,493783550.0,493754850.0,493679940.0,493654340.0,493672600.0,493701200.0
493699800.0,493670720.0,493689900.0,493672400.0,493643460.0,493671070.0,493666050.0,493636770.0,493573220.0,493547140.0,493661600.0,493709250.0,493658560.0,493728860.0,493781730.0,493722050.0,493704900.0,493680600.0,493664640.0,493663970.0,493605250.0,493625150.0,493688930.0,493688740.0,493716900.0,493744700.0,493717630.0,493715140.0,493688260.0,493672500.0,493757660.0,493762050.0,493726850.0,493704500.0,493659040.0,493717950.0,493731500.0,493737280.0,493784860.0,493705630.0,493666050.0,493670140.0,493685950.0,493756100.0,493755140.0,493743800.0,493759170.0,493765200.0,493768600.0,493769860.0,493776480.0,493787400.0,493818200.0,493782700.0,493723300.0,493721020.0,493690020.0,493693150.0,493707100.0,493660200.0,493676400.0,493710460.0,493694300.0,493688130.0,493684200.0,493727870.0,493761820.0,493696640.0,493660540.0,493657150.0,493667520.0,493740800.0,493791550.0,493805660.0,493763650.0,493693730.0,493722660.0,493774180.0,493779360.0,493753700.0,493694430.0,493682300.0,493704670.0,493706400.0,493723840.0,493753340.0,493739780.0,493690430.0,493706050.0,493733980.0,493701220.0,493679000.0,493669660.0,493709400.0,493743740.0,493725600.0,493713860.0,493661150.0,493655420.0,493675620.0,493676960.0,493739460.0,493736830.0,493697020.0,493663650.0,493625540.0,493666240.0,493694200.0,493700800.0,493744770.0,493761820.0,493719420.0,493702620.0,493717250.0,493659170.0,493624420.0,493655870.0,493686080.0,493713660.0,493684260.0,493675140.0,493720500.0,493714460.0,493698370.0,493686240.0,493690140.0,493743070.0,493736540.0,493702200.0,493722980.0,493733020.0,493734270.0,493740830.0,493729400.0,493722270.0,493713540.0,493675140.0,493667070.0,493693980.0,493677500.0,493673470.0,493678100.0,493659000.0,493652670.0,493623460.0,493670800.0,493759940.0,493689860.0,493634200.0,493712400.0,493721400.0,493669440.0,493666270.0,493671650.0,493667230.0,493664770.0,493684130.0,493714780.0,493714600.0,493655520.0,493591400.0,493647100.0,493737950.0,493753820.0,493720000.0,493690270.0,493714430.0,493713860.0,493706370.0,493696130.0,493657600.0,493667500.0,493660900.0,493665020.0,493682000.0,493663420.0,493676130.0,493670050.0,493693600.0,493724540.0,493681800.0,493697860.0,493716670.0,493690750.0,493713730.0,493716800.0,493689200.0,493665920.0,493626140.0,493636200.0,493688420.0,493675840.0,493654300.0,493678820.0,493648960.0,493613760.0,493621920.0,493611970.0,493656420.0,493702460.0,493691500.0,493699360.0,493671400.0,493641280.0,493639300.0,493626850.0,493675420.0,493724830.0,493710620.0,493706900.0,493705500.0,493668450.0,493650700.0,493675000.0,493679040.0,493665120.0,493684770.0,493719500.0,493681730.0,493569660.0,493512600.0,493547650.0,493610080.0,493651550.0,493687360.0,493728200.0,493687800.0,493599840.0,493583040.0,493629730.0,493667420.0,493660900.0,493648300.0,493658340.0,493686530.0,493658140.0,493597000.0,493610050.0,493625180.0,493648580.0,493659170.0,493633820.0,493692380.0,493712500.0,493663460.0,493631170.0,493581730.0,493589300.0,493614200.0,493627420.0,493649570.0,493608030.0,493603870.0,493641820.0,493641060.0,493647550.0,493637020.0,493661820.0,493739070.0,493764580.0,493741540.0,493687500.0,493642900.0,493633150.0,493625660.0,493652220.0,493720600.0,493738500.0,493663400.0,493637980.0,493669150.0,493628930.0,493599680.0,493611650.0,493631870.0,493636600.0,493581760.0,493593540.0,493675700.0,493690460.0,493673860.0,493677600.0,493669980.0,493654800.0,493643500.0,493616200.0,493606100.0,493617820.0,493619170.0,493642340.0,493666560.0,493676540.0,493696540.0,493681180.0,493638300.0,493604380.0,493594140.0,493630720.0,493673730.0,493690500.0,493668860.0,493647040.0,493649500.0,493630180.0,493632400.0,493640350.0,493653900.0,493679740.0,493656600.0,493679550.0,493690800.0,493644500.0,493644030.0,493645920.0,493663200.0,493674270.0,493671000.0,493690530.0,493683230.0,493667800.0,493652580.0,493647780.0,493651650.0,493619300.0,493596060.0,493629200.0,493644000.0,493614240.0,493610560.0,493621920.0,493652260.0,493657020.0,493621600.0,493638980.0,493639420.0,493618560.0,493605100.0,493574000.0,493579680.0,493574880.0,493584030.0,493659680.0,493684600.0,493621020.0,493579700.0,493610850.0,493634370.0,493616030.0,493612800.0,493648670.0,493658560.0,493610780.0,493607500.0,493678180.0,493707740.0,493681100.0,493650180.0,493636500.0,493670720.0,493655680.0,493620900.0,493668260.0,493664260.0,493644380.0,493669060.0,493684160.0,493725900.0,493712930.0,493636770.0,493603420.0,493613800.0,493618400.0,493606720.0,493630980.0,493663500.0,493659680.0,493622270.0,493596900.0,493632600.0,493625660.0,493602560.0,493646530.0,493678800.0,493706530.0,493656400.0,493543840.0,493539040.0,493512320.0,493460160.0,493550050.0,493675520.0,493738720.0,493729540.0,493723550.0,493749340.0,493688000.0,493638600.0,493641060.0,493626300.0,493650800.0,493654880.0,493642880.0,493648700.0,493632060.0,493634850.0,493655700.0,493668100.0,493645120.0,493579800.0,493552350.0,493607550.0,493629630.0,493603200.0,493657440.0,493667040.0,493610660.0,493600450.0,493543230.0,493532160.0,493589220.0,493586780.0,493611680.0,493645820.0,493622460.0,493611970.0,493649630.0,493686530.0,493657660.0,493609900.0,493613400.0,493636860.0,493623500.0,493598400.0,493633500.0,493679680.0,493676960.0,493655300.0,493616480.0,493599700.0,493612500.0,493624220.0,493664960.0,493658270.0,493625540.0,493654940.0,493639580.0,493605000.0,493601630.0,493606000.0,493659650.0,493671840.0,493626140.0,493616350.0,493608960.0,493568700.0,493541470.0,493539260.0,493567740.0,493648060.0,493665660.0,493623580.0,493618880.0,493587170.0,493539600.0,493531780.0,493602660.0,493705180.0,493713280.0,493674980.0,493664000.0,493667780.0,493656670.0,493641340.0,493673100.0,493719740.0,493685220.0,493596400.0,493580380.0,493615500.0,493624540.0,493578940.0,493533860.0,493587170.0,493613300.0,493590820.0,493652200.0,493679360.0,493627300.0,493592740.0,493585760.0,493638530.0,493678850.0,493619500.0,493569800.0,493555520.0,493532320.0,493540700.0,493554340.0,493621200.0,493715460.0,493656740.0,493612740.0,493654340.0,493606240.0,493591520.0,493610140.0,493602700.0,493638750.0,493633760.0,493623460.0,493644700.0,493627620.0,493630050.0,493657100.0,493664200.0,493676960.0,493679170.0,493654820.0,493666750.0,493684900.0,493634240.0,493592060.0,493577660.0,493554000.0,493571070.0,493586800.0,493569800.0,493557280.0,493549150.0,493574800.0,493613440.0,493638240.0,493651200.0,493639200.0,493635870.0,493628320.0,493609380.0,493619230.0,493651550.0,493673570.0,493690560.0,493702300.0,493657280.0,493621630.0,493635170.0,493620930.0,493596300.0,493578530.0,493574270.0,493595940.0,493595330.0,493584480.0,493599040.0,493600540.0,493597380.0,493585250.0,493541950.0,493550000.0,493578600.0,493574460.0,493599580.0,493647230.0,493678820.0,493652900.0,493626530.0,493664060.0,493656030.0,493606600.0,493598880.0,493595620.0,493599800.0,493606180.0,493601440.0,493643400.0,493676900.0,493640800.0,493586800.0,493547040.0,493554000.0,493590980.0,493591170.0,493568860.0,493582080.0,493590140.0,493574560.0,493626880.0,493669540.0,493631970.0,493591500.0,493569100.0,493603840.0,493635170.0,493625470.0,493643100.0,493654530.0,493644300.0,493586900.0,493559300.0,493610500.0,493563620.0,493505860.0,493577920.0,493618700.0,493567520.0,493534940.0,493572960.0,493626080.0,493661500.0,493639230.0,493547800.0,493535520.0,493588700.0,493619500.0,493647700.0,493634200.0,493628900.0,493626780.0,493619070.0,493676380.0,493682270.0,493658500.0,493690980.0,493697440.0,493688900.0,493656060.0,493610560.0,493621760.0,493626600.0,493600600.0,493595800.0,493607040.0,493602020.0,493579140.0,493555500.0,493550560.0,493580450.0,493602900.0,493622270.0,493649600.0,493629800.0,493604450.0,493559360.0,493485280.0,493488000.0,493530620.0,493586020.0,493664160.0,493712700.0,493695580.0,493616500.0,493610240.0,493637630.0,493606300.0,493619400.0,493633280.0,493638240.0,493643260.0,493611100.0,493597800.0,493575300.0,493578700.0,493628700.0,493647360.0,493600260.0,493551170.0,493593300.0,493619940.0,493599230.0,493519650.0,493390900.0,493436200.0,493515330.0,493508450.0,493583600.0,493627970.0,493623940.0,493649730.0,493614000.0,493541570.0,493510600.0,493548930.0,493618850.0,493638340.0,493601730.0,493560220.0,493580030.0,493666620.0,493718600.0,493679500.0,493641300.0,493640100.0,493562370.0,493459800.0,493490600.0,493572220.0,493591780.0,493578530.0,493568960.0,493614700.0,493654100.0,493623940.0,493636030.0,493655800.0,493625060.0,493594000.0,493574180.0,493622660.0,493641900.0,493593280.0,493603360.0,493586500.0,493507740.0,493473600.0,493521630.0,493592480.0,493616770.0,493588770.0,493534000.0,493565600.0,493618180.0,493575870.0,493572260.0,493604640.0,493630100.0,493647300.0,493600540.0,493603970.0,493618900.0,493547700.0,493540100.0,493596960.0,493641300.0,493650430.0,493645150.0,493676900.0,493654270.0,493630820.0,493628860.0,493583650.0,493594200.0,493595800.0,493619070.0,493692500.0,493659200.0,493610080.0,493593660.0,493596300.0,493635300.0,493614940.0,493584540.0,493599900.0,493594900.0,493578270.0,493586270.0,493603330.0,493627650.0,493645820.0,493613980.0,493597200.0,493607400.0,493577600.0,493587460.0,493633380.0,493626560.0,493596500.0,493572700.0,493556160.0,493540000.0,493547330.0,493619070.0,493668700.0,493649470.0,493663000.0,493656480.0,493578560.0,493539360.0,493515500.0,493515040.0,493589250.0,493644400.0,493658140.0,493672400.0,493667330.0,493616800.0,493576220.0,493562050.0,493540100.0,493558270.0,493596350.0,493616130.0,493602900.0,493578700.0,493590400.0,493582660.0,493592400.0,493602180.0,493583600.0,493610460.0,493593340.0,493575580.0,493600320.0,493590500.0,493605000.0,493606800.0,493594400.0,493613900.0,493618500.0,493605200.0,493587300.0,493600670.0,493608200.0,493569800.0,493522880.0,493497060.0,493532450.0,493564100.0,493539200.0,493525020.0,493577950.0,493650050.0,493617730.0,493574100.0,493618020.0,493605200.0,493557340.0,493584220.0,493615040.0,493610850.0,493580670.0,493561800.0,493622850.0,493673400.0,493669340.0,493677100.0,493658370.0,493619600.0,493565380.0,493527940.0,493585860.0,493594560.0,493471500.0,493409760.0,493476770.0,493487940.0,493454270.0,493540770.0,493635600.0,493638200.0,493594340.0,493564060.0,493589150.0,493598050.0,493629570.0,493658240.0,493630400.0,493621250.0,493526370.0,493463580.0,493554080.0,493580380.0,493558720.0,493589900.0,493661150.0,493675500.0,493583170.0,493532000.0,493537820.0,493547230.0,493534660.0,493527230.0,493599400.0,493645660.0,493635330.0,493604450.0,493559420.0,493577150.0,493584740.0,493552100.0,493556800.0,493594270.0,493634850.0,493610340.0,493565920.0,493554750.0,493545400.0,493569700.0,493562400.0,493529500.0,493575840.0,493593100.0,493527940.0,493525820.0,493586270.0,493601300.0,493600350.0,493592930.0,493563420.0,493577150.0,493606400.0,493608580.0,493595500.0,493563170.0,493560640.0,493579900.0,493590400.0,493628740.0,493648030.0,493631100.0,493610180.0,493585700.0,493600320.0,493622530.0,493621730.0,493636700.0,493647580.0,493635870.0,493610430.0,493598270.0,493623420.0,493637100.0,493612260.0,493622900.0,493652500.0,493616350.0,493582200.0,493581120.0,493572100.0,493587940.0,493604160.0,493636860.0,493676740.0,493593820.0,493509820.0,493538600.0,493573920.0,493607840.0,493568220.0,493520580.0,493616860.0,493658700.0,493614600.0,493622460.0,493629280.0,493624830.0,493612830.0,493605730.0,493632740.0,493640770.0,493608930.0,493595780.0,493622300.0,493626300.0,493608580.0,493607140.0,493625440.0,493649400.0,493600500.0,493546940.0,493577280.0,493580400.0,493567520.0,493593700.0,493642180.0,493690720.0,493653600.0,493605900.0,493611200.0,493594900.0,493578800.0,493568160.0,493591870.0,493628300.0,493586500.0,493572200.0,493622000.0,493621760.0,493588260.0,493582270.0,493605250.0,493629120.0,493616800.0,493590600.0,493596770.0,493598140.0,493564400.0,493564300.0,493596030.0,493610600.0,493619300.0,493586020.0,493573540.0,493613920.0,493595360.0,493597800.0,493641020.0,493641250.0,493633540.0,493599600.0,493588770.0,493616220.0,493591000.0,493577570.0,493601540.0,493598500.0,493591170.0,493581280.0,493572100.0,493585920.0,493575940.0,493561150.0,493580600.0,493586800.0,493593400.0,493610500.0,493590370.0,493571520.0,493576200.0,493563780.0,493580640.0,493611200.0,493598660.0,493611200.0,493609730.0,493579700.0,493588000.0,493577060.0,493589100.0,493609100.0,493576930.0,493584220.0,493590560.0,493579170.0,493590430.0,493583970.0,493588540.0,493589120.0,493560200.0,493554900.0,493574620.0,493571400.0,493554370.0,493559840.0,493565920.0,493560960.0,493545730.0,493551680.0,493593440.0,493579360.0,493534750.0,493535170.0,493547500.0,493561100.0,493551140.0,493551840.0,493599940.0,493589100.0,493545700.0,493550980.0,493554140.0,493557900.0,493550800.0,493540860.0,493583330.0,493588380.0,493544220.0,493542180.0,493554530.0,493556380.0,493543940.0,493523700.0,493542720.0,493568060.0,493541950.0,493527040.0,493560860.0,493561120.0,493534560.0,493524160.0,493530880.0,493564500.0,493545950.0,493518620.0,493560960.0,493557950.0,493525730.0,493521400.0,493533280.0,493570300.0,493543840.0,493499700.0,493529540.0,493541400.0,493533150.0,493539680.0,493541760.0,493557600.0,493543200.0,493499200.0,493516400.0,493550850.0,493527900.0,493519460.0,493537800.0,493542430.0,493553500.0,493533470.0,493528400.0,493562500.0,493533250.0,493515940.0,493542240.0,493548500.0,493564540.0,493548700.0,493535800.0,493556060.0,493523520.0,493494080.0,493507940.0,493527680.0,493545400.0,493537540.0,493532700.0,493540960.0,493528600.0,493521700.0,493543000.0,493553400.0,493536420.0,493532060.0,493539170.0,493537280.0,493534400.0,493535230.0,493551870.0,493561920.0,493547460.0,493542400.0,493540000.0,493539230.0,493544400.0,493527940.0,493533100.0,493540740.0,493517660.0,493536000.0,493547800.0,493526370.0,493515360.0,493495420.0,493510270.0,493530270.0,493520320.0,493541020.0,493553300.0,493529280.0,493510560.0,493508030.0,493517900.0,493535140.0,493528060.0,493526460.0,493569950.0,493552260.0,493507260.0,493525800.0,493533100.0,493549300.0,493547100.0,493524900.0,493567040.0,493554900.0,493511420.0,493532930.0,493540740.0,493547460.0,493537860.0,493513100.0,493546880.0,493565950.0,493534180.0,493524740.0,493544060.0,493541380.0,493516640.0,493506460.0,493529570.0,493563680.0,493534980.0,493504450.0,493534430.0,493533900.0,493530430.0,493539170.0,493550200.0,493588740.0,493551170.0,493509300.0,493548130.0,493548960.0
493532030.0,493528670.0,493530560.0,493553730.0,493536400.0,493502000.0,493514700.0,493534000.0,493532600.0,493533440.0,493537300.0,493538700.0,493534200.0,493531330.0,493560600.0,493584450.0,493567780.0,493553570.0,493561700.0,493596000.0,493615520.0,493580740.0,493569250.0,493589100.0,493575400.0,493591140.0,493644900.0,493666300.0,493667550.0,493636260.0,493619900.0,493658240.0,493660320.0,493656320.0,493685340.0,493703000.0,493711600.0,493697100.0,493694200.0,493724000.0,493723500.0,493720500.0,493758400.0,493775360.0,493769570.0,493793630.0,493810080.0,493819520.0,493833950.0,493821980.0,493843140.0,493864540.0,493852930.0,493889340.0,493895970.0,493875680.0,493895520.0,493884130.0,493903070.0,493948000.0,493946500.0,493972300.0,493985920.0,493968740.0,493979500.0,493981120.0,493994900.0,494017300.0,494004500.0,494014050.0,494035230.0,494015940.0,494007520.0,494024540.0,494038430.0,494052800.0,494041000.0,494034100.0,494072700.0,494073660.0,494045630.0,494056740.0,494066850.0,494071140.0,494063230.0,494060600.0,494102560.0,494097920.0,494061470.0,494060200.0,494058340.0,494070340.0,494064000.0,494051500.0,494092640.0,494102700.0,494062050.0,494040670.0,494050500.0,494074020.0,494071650.0,494059650.0,494088030.0,494105820.0,494057600.0,494024160.0,494051600.0,494056450.0,494034340.0,494013000.0,494017820.0,494060220.0,494027520.0,493996380.0,494052580.0,494049820.0,494021570.0,494007740.0,493998820.0,494043400.0,494023300.0,493977730.0,494011940.0,494012380.0,493982300.0,493973540.0,493975400.0,494000400.0,493996960.0,493952400.0,493949060.0,493973150.0,493954100.0,493944670.0,493963600.0,493972700.0,493964260.0,493907870.0,493892860.0,493932930.0,493912030.0,493900130.0,493918940.0,493919070.0,493932030.0,493910530.0,493893020.0,493924000.0,493901380.0,493872130.0,493890140.0,493889470.0,493887170.0,493883870.0,493881760.0,493892960.0,493867000.0,493836740.0,493841120.0,493849700.0,493852740.0,493848600.0,493835070.0,493823400.0,493815580.0,493803100.0,493820030.0,493842080.0,493831500.0,493835740.0,493820380.0,493802560.0,493819260.0,493812860.0,493831900.0,493846500.0,493809700.0,493803520.0,493802050.0,493799680.0,493808500.0,493793920.0,493802300.0,493810880.0,493794100.0,493808200.0,493828400.0,493812800.0,493788740.0,493780320.0,493777060.0,493782400.0,493778750.0,493776450.0,493808160.0,493792320.0,493751360.0,493752060.0,493744640.0,493765150.0,493773950.0,493756220.0,493798140.0,493790370.0,493741060.0,493748640.0,493745500.0,493749300.0,493748200.0,493723260.0,493757250.0,493770080.0,493724500.0,493725380.0,493749200.0,493752900.0,493738850.0,493712220.0,493733920.0,493778180.0,493749540.0,493725000.0,493758660.0,493759940.0,493744580.0,493731230.0,493735580.0,493780800.0,493749250.0,493692320.0,493717300.0,493723300.0,493707740.0,493711500.0,493728450.0,493758880.0,493729860.0,493681150.0,493697800.0,493722050.0,493716130.0,493709000.0,493727550.0,493750080.0,493731400.0,493696300.0,493703230.0,493728160.0,493714180.0,493698000.0,493707680.0,493729900.0,493747000.0,493718530.0,493712930.0,493737400.0,493696860.0,493663840.0,493677100.0,493700960.0,493719800.0,493686530.0,493677600.0,493699500.0,493672220.0,493663780.0,493680450.0,493698750.0,493713150.0,493680540.0,493669340.0,493694800.0,493689120.0,493682240.0,493699550.0,493704740.0,493691000.0,493682300.0,493670530.0,493682000.0,493698660.0,493673300.0,493683520.0,493697440.0,493677340.0,493689700.0,493681860.0,493672700.0,493681400.0,493656770.0,493664640.0,493681180.0,493667800.0,493677700.0,493669920.0,493651520.0,493657120.0,493635300.0,493632450.0,493667680.0,493664500.0,493669500.0,493694560.0,493676600.0,493658530.0,493662980.0,493665570.0,493675360.0,493670600.0,493654180.0,493667940.0,493660030.0,493633540.0,493649800.0,493660500.0,493672960.0,493669470.0,493640260.0,493672200.0,493685400.0,493652450.0,493649760.0,493649340.0,493656000.0,493653150.0,493639300.0,493660700.0,493668800.0,493638370.0,493618270.0,493632960.0,493653760.0,493643800.0,493626980.0,493647300.0,493674140.0,493637730.0,493600220.0,493632160.0,493649730.0,493637220.0,493630300.0,493639460.0,493672700.0,493645600.0,493613380.0,493657760.0,493668480.0,493656300.0,493646530.0,493642700.0,493684960.0,493669280.0,493631500.0,493657920.0,493670660.0,493654530.0,493626780.0,493626700.0,493669100.0,493679000.0,493645950.0,493639140.0,493659740.0,493640900.0,493625400.0,493646720.0,493666240.0,493675650.0,493629760.0,493607970.0,493653980.0,493642620.0,493632960.0,493658940.0,493670180.0,493686100.0,493641500.0,493609540.0,493641700.0,493622850.0,493620800.0,493645660.0,493633920.0,493640830.0,493636540.0,493622370.0,493641820.0,493649600.0,493634460.0,493630620.0,493631680.0,493625440.0,493635170.0,493640900.0,493651680.0,493671400.0,493634400.0,493612700.0,493632860.0,493625820.0,493641950.0,493648320.0,493629100.0,493638980.0,493624770.0,493616000.0,493625440.0,493620500.0,493638180.0,493638050.0,493625860.0,493625380.0,493621060.0,493635500.0,493641800.0,493635300.0,493629200.0,493633630.0,493646180.0,493640700.0,493643870.0,493648420.0,493643520.0,493631700.0,493632800.0,493669660.0,493665440.0,493642940.0,493647940.0,493639970.0,493652000.0,493644860.0,493621200.0,493658940.0,493662370.0,493610560.0,493590050.0,493593540.0,493617180.0,493626720.0,493617950.0,493643550.0,493646200.0,493605500.0,493594100.0,493618600.0,493645540.0,493649060.0,493626980.0,493629800.0,493649760.0,493607840.0,493570800.0,493612580.0,493642430.0,493626900.0,493594200.0,493590750.0,493623600.0,493601180.0,493573340.0,493595400.0,493594050.0,493583140.0,493574200.0,493590530.0,493641000.0,493609570.0,493542430.0,493564480.0,493613150.0,493623070.0,493607200.0,493593250.0,493616200.0,493626660.0,493574140.0,493561600.0,493601020.0,493591460.0,493584800.0,493610750.0,493643650.0,493669920.0,493618500.0,493576200.0,493594140.0,493566750.0,493541100.0,493543870.0,493574180.0,493627070.0,493593000.0,493554020.0,493584060.0,493576300.0,493548700.0,493558100.0,493590180.0,493612960.0,493601250.0,493583680.0,493595300.0,493597100.0,493568800.0,493574340.0,493596350.0,493596130.0,493589400.0,493562240.0,493564380.0,493587460.0,493572220.0,493591140.0,493618620.0,493605730.0,493602100.0,493574180.0,493570370.0,493600100.0,493580200.0,493585920.0,493598270.0,493577630.0,493583200.0,493575070.0,493569950.0,493580320.0,493562000.0,493560500.0,493584320.0,493592670.0,493607700.0,493634340.0,493619680.0,493592300.0,493584900.0,493568800.0,493580740.0,493588500.0,493577860.0,493603420.0,493584580.0,493549100.0,493562850.0,493563700.0,493582180.0,493597400.0,493586200.0,493606300.0,493595140.0,493560740.0,493566140.0,493577060.0,493602620.0,493610200.0,493582750.0,493599680.0,493612770.0,493571740.0,493552000.0,493563260.0,493569760.0,493565000.0,493552400.0,493566560.0,493585660.0,493539100.0,493502880.0,493545020.0,493567840.0,493566140.0,493574050.0,493585900.0,493599680.0,493518600.0,493442850.0,493485500.0,493503230.0,493511100.0,493542620.0,493565120.0,493598720.0,493585760.0,493550980.0,493543650.0,493558900.0,493575970.0,493548960.0,493532700.0,493561000.0,493561250.0,493511800.0,493518340.0,493581060.0,493584100.0,493579300.0,493572670.0,493551260.0,493549380.0,493510720.0,493513860.0,493532930.0,493499230.0,493536060.0,493596160.0,493625150.0,493609630.0,493509120.0,493482940.0,493545600.0,493547360.0,493557440.0,493604200.0,493634600.0,493668350.0,493602180.0,493502500.0,493507500.0,493475170.0,493432860.0,493431780.0,493393280.0,493395700.0,493443460.0,493447500.0,493409100.0,493377700.0,493340740.0,493354430.0,493471230.0,493550600.0,493537600.0,493449060.0,493408100.0,493457300.0,493437000.0,493462340.0,493521540.0,493478200.0,493436580.0,493428540.0,493465730.0,493506340.0,493533120.0,493549630.0,493536600.0,493564640.0,493547900.0,493523900.0,493572800.0,493581280.0,493546720.0,493504320.0,493529280.0,493564200.0,493566530.0,493603140.0,493561570.0,493552320.0,493625860.0,493637630.0,493650880.0,493621060.0,493568700.0,493613220.0,493613220.0,493513120.0,493433730.0,493326880.0,493265180.0,493356900.0,493407400.0,493490800.0,493614620.0,493506900.0,493342850.0,493302340.0,493322270.0,493383800.0,493428060.0,493431740.0,493453380.0,493498780.0,493495170.0,493492670.0,493556220.0,493615900.0,493622340.0,493623070.0,493634600.0,493530240.0,493350140.0,493288100.0,493326800.0,493366560.0,493430200.0,493524900.0,493538020.0,493469200.0,493481800.0,493567940.0,493566620.0,493549250.0,493597470.0,493630660.0,493694600.0,493716580.0,493671700.0,493701340.0,493706300.0,493693380.0,493725470.0,493739460.0,493779200.0,493745820.0,493624580.0,493618050.0,493690140.0,493745380.0,493766240.0,493689570.0,493549900.0,493418460.0,493300220.0,493249250.0,493374000.0,493596480.0,493686000.0,493616420.0,493536860.0,493483300.0,493454980.0,493461570.0,493448200.0,493580740.0,493774980.0,493785920.0,493875330.0,493969000.0,493912130.0,493857150.0,493844580.0,493886000.0,493767970.0,493646080.0,493688000.0,493698980.0,493776860.0,493834980.0,493781470.0,493695000.0,493640400.0,493677340.0,493711500.0,493779620.0,493804130.0,493650900.0,493402900.0,493218980.0,493270600.0,493442240.0,493655520.0,493910400.0,493983040.0,493934180.0,493863600.0,493752320.0,493751200.0,493753280.0,493773950.0,493875520.0,493863940.0,493863740.0,493842000.0,493796700.0,493850050.0,493829860.0,493869400.0,493938400.0,493883200.0,493842800.0,493807330.0,493770620.0,493715650.0,493744200.0,493868130.0,493863740.0,493796960.0,493721700.0,493588640.0,493485150.0,493551870.0,493766820.0,494003870.0,494158270.0,494054700.0,493930020.0,493974460.0,493994430.0,494019300.0,493944300.0,493798460.0,493779520.0,493740220.0,493744320.0,493861220.0,493847580.0,493755400.0,493750180.0,493748480.0,493770560.0,493870620.0,493969630.0,494012770.0,493933980.0,493773400.0,493743700.0,493842050.0,493854560.0,493849820.0,493925950.0,493981250.0,493967940.0,493870880.0,493811360.0,493816580.0,493824770.0,493939700.0,494044200.0,493958270.0,493780300.0,493690780.0,493758530.0,493915260.0,493978900.0,493925860.0,493977120.0,494032220.0,493975650.0,493950880.0,493963330.0,494016160.0,494004600.0,493958600.0,493995360.0,494004860.0,494022100.0,493984960.0,493909000.0,493972860.0,494021860.0,493984060.0,493989920.0,493975970.0,493861340.0,493810800.0,493859840.0,493901800.0,493954600.0,493929440.0,493878180.0,493914560.0,493942900.0,493970500.0,493981540.0,493953120.0,493939000.0,493910980.0,493926340.0,493998240.0,493989500.0,493925760.0,493893340.0,493834050.0,493803550.0,493964830.0,494149900.0,494116860.0,494028220.0,494023550.0,494054800.0,494082750.0,494032100.0,493957200.0,493925340.0,493919550.0,493985800.0,494103040.0,494142560.0,494061400.0,493975140.0,493884580.0,493783840.0,493835970.0,493952450.0,493990800.0,493999780.0,493926600.0,493843000.0,493818660.0,493755300.0,493784130.0,493907260.0,493996060.0,494070300.0,494042240.0,493958980.0,493928860.0,493987460.0,494106900.0,494114980.0,494006900.0,493950400.0,494028580.0,494028600.0,493920960.0,493957980.0,494038300.0,493984960.0,493762780.0,493634240.0,493804670.0,493896060.0,493848400.0,493847100.0,493861340.0,494021570.0,494097820.0,493911800.0,493849020.0,493836350.0,493785250.0,493932830.0,494093340.0,494104300.0,494028060.0,493981500.0,494022370.0,494024580.0,493969250.0,493928400.0,493976200.0,494026080.0,493999000.0,494008860.0,494029660.0,494030720.0,493990180.0,493946720.0,493980860.0,493989440.0,493996830.0,493983940.0,493930780.0,493894800.0,493725700.0,493678560.0,493941470.0,494047940.0,494005340.0,494030100.0,494000450.0,494045150.0,494064400.0,493967500.0,494027780.0,494052160.0,493960350.0,493956960.0,493972450.0,493965340.0,493907040.0,493845340.0,493826530.0,493858140.0,493942460.0,493935940.0,493891600.0,493934500.0,493997150.0,493955520.0,493843420.0,493830820.0,493900540.0,493947680.0,493980000.0,494063500.0,494119650.0,494068960.0,494023040.0,493932960.0,493750940.0,493717200.0,493864900.0,493938430.0,493974180.0,494080350.0,494056420.0,493960300.0,493982600.0,493964860.0,493937570.0,493967330.0,493903300.0,493886270.0,493933250.0,493902850.0,493854560.0,493780160.0,493755040.0,493844030.0,494012640.0,494111460.0,494016220.0,494009730.0,494055800.0,493981280.0,494012100.0,494010000.0,493864260.0,493792540.0,493785440.0,493829860.0,493908960.0,493900300.0,493847780.0,493843940.0,493847360.0,493873470.0,493944200.0,493945900.0,493926820.0,493958850.0,493961020.0,493953820.0,493930240.0,493934620.0,494012350.0,494003870.0,493948600.0,493947970.0,493917340.0,493860100.0,493837630.0,493849630.0,493825500.0,493807400.0,493921730.0,494066100.0,494136640.0,494138780.0,494017180.0,493857200.0,493837570.0,493921000.0,493941020.0,493918750.0,493947740.0,493904600.0,493781730.0,493808000.0,493949250.0,493926880.0,493744900.0,493696480.0,493801150.0,493915330.0,494012540.0,494021220.0,494022500.0,494001660.0,493932640.0,493977400.0,493971700.0,493887940.0,493840930.0,493817800.0,493884130.0,493901700.0,493864420.0,493877980.0,493897730.0,493919700.0,493883400.0,493864670.0,493975550.0,494080770.0,494109980.0,494074140.0,493983000.0,493939840.0,493889540.0,493842750.0,493915040.0,493938880.0,493846270.0,493798430.0,493908640.0,494009470.0,493926340.0,493837800.0,493779300.0,493737180.0,493821570.0,493967550.0,494048220.0,494028700.0,493945730.0,493814430.0,493786620.0,493850700.0,493856300.0,493934850.0,493937000.0,493852640.0,493956900.0,494022100.0,493963040.0,493901060.0,493837100.0,493866700.0,493921060.0,493916160.0,493902700.0,493928300.0,493992000.0,493991940.0,493852930.0,493717300.0,493740930.0,493797500.0,493841540.0,493912480.0,493954050.0,493929900.0,493862750.0,493915260.0,493952000.0,493872540.0,493930900.0,494042400.0,494074600.0,494073250.0,494038850.0,494018780.0,494018780.0,494016860.0,494003870.0,493907360.0,493733570.0,493687330.0,493817440.0,494041570.0,494206750.0,494080800.0,493937120.0,493941020.0,493893280.0,493879420.0,493873630.0,493893120.0,493944000.0,493860350.0,493810100.0,493884060.0,493883000.0,493792500.0,493758900.0,493768060.0,493878400.0,494068000.0,494093250.0,494081630.0,494099170.0,494024830.0,493964450.0,493957020.0,493994660.0,494018180.0,493925060.0,493783900.0,493718400.0,493736930.0,493770270.0,493795230.0,493915000.0,494061860.0,493989980.0,493868500.0,493832350.0,493785300.0,493868740.0,493948160.0,493897600.0,493893200.0,493887520.0,493894370.0,493986000.0
494042780.0,494001600.0,493947620.0,493919330.0,493877980.0,493890980.0,493904130.0,493881470.0,493930200.0,493927360.0,493921340.0,493943970.0,493849400.0,493806240.0,493802940.0,493860320.0,494002240.0,494006750.0,494057600.0,494132300.0,494114880.0,494100800.0,493976540.0,493882700.0,493838340.0,493795970.0,493884740.0,493964600.0,494004540.0,494038750.0,494022340.0,493913400.0,493689180.0,493566400.0,493636030.0,493749020.0,493912260.0,493996600.0,493864260.0,493803460.0,493786080.0,493703100.0,493796670.0,493931650.0,493974050.0,493969760.0,493958750.0,494005150.0,493993570.0,493968770.0,493937280.0,493858620.0,493799400.0,493801860.0,493953180.0,493933220.0,493771460.0,493847200.0,493900700.0,493915260.0,493929540.0,493827620.0,493821000.0,493828740.0,493740350.0,493673300.0,493703680.0,493829200.0,493970900.0,494072540.0,494057200.0,494016500.0,494008060.0,493975330.0,493979620.0,493932220.0,493848260.0,493876600.0,493934500.0,493955460.0,493906900.0,493805470.0,493847420.0,493936160.0,493901060.0,493917280.0,493953540.0,493968300.0,494005540.0,493927520.0,493861060.0,493897200.0,493932900.0,493918720.0,493807360.0,493721380.0,493695360.0,493653900.0,493688220.0,493784770.0,493793180.0,493790660.0,493834780.0,493811520.0,493868200.0,493949800.0,493898140.0,493907870.0,493901800.0,493860600.0,493915170.0,493939700.0,493891780.0,493795740.0,493738780.0,493775500.0,493850430.0,493922660.0,493918850.0,493891100.0,493910980.0,493933660.0,493910300.0,493864960.0,493885060.0,493883870.0,493843260.0,493883780.0,493918880.0,493940220.0,493926900.0,493877280.0,493906780.0,493897000.0,493921500.0,493952600.0,493817630.0,493692100.0,493605660.0,493717800.0,493951900.0,493927650.0,493923940.0,493999330.0,493951740.0,493926300.0,493894560.0,493829380.0,493814660.0,493847200.0,493768600.0,493615800.0,493648830.0,493716200.0,493788220.0,493960900.0,494053570.0,494029380.0,493961400.0,493984200.0,494010500.0,493991520.0,493983940.0,493852860.0,493774200.0,493742560.0,493686800.0,493762080.0,493855970.0,493955360.0,494020800.0,494007740.0,494005100.0,493932860.0,493797540.0,493759940.0,493811620.0,493822660.0,493858720.0,493921900.0,493914780.0,493890180.0,493866980.0,493832670.0,493816220.0,493871800.0,493969200.0,494010530.0,493912740.0,493808670.0,493865950.0,493887940.0,493863000.0,493897200.0,493926850.0,493898200.0,493807940.0,493826400.0,493876220.0,493878800.0,493919420.0,493888700.0,493815140.0,493816500.0,493873600.0,493852830.0,493837950.0,493876480.0,493778000.0,493681200.0,493685820.0,493790980.0,493938200.0,493939900.0,493941570.0,493927780.0,493759580.0,493637120.0,493614820.0,493698180.0,493881540.0,493856400.0,493770000.0,493933400.0,494048640.0,494038050.0,493959900.0,493878340.0,493983550.0,494012200.0,493910720.0,493898340.0,493911360.0,493915870.0,493931520.0,493956380.0,493971170.0,493939650.0,493818600.0,493715100.0,493741440.0,493796830.0,493885980.0,493935040.0,493880260.0,493871070.0,493848320.0,493814050.0,493820480.0,493728960.0,493656030.0,493708400.0,493724300.0,493732130.0,493780600.0,493832400.0,493900220.0,493828860.0,493749540.0,493855940.0,493921630.0,493967300.0,493962050.0,493870620.0,493900160.0,493878560.0,493832200.0,493891360.0,493872960.0,493788480.0,493716740.0,493740860.0,493831580.0,493867870.0,493879940.0,493898530.0,493958750.0,494002500.0,493959800.0,493919420.0,493895520.0,493824260.0,493758560.0,493732260.0,493671000.0,493612160.0,493641340.0,493730460.0,493810900.0,493885100.0,493929570.0,493845800.0,493740380.0,493738660.0,493819740.0,493936500.0,493954900.0,493884670.0,493822270.0,493810370.0,493826900.0,493777200.0,493745020.0,493760830.0,493786140.0,493845950.0,493861800.0,493857380.0,493858800.0,493818660.0,493787040.0,493776260.0,493692000.0,493530240.0,493465180.0,493556700.0,493748640.0,493978240.0,494070880.0,493974080.0,493838200.0,493731700.0,493655870.0,493639230.0,493674270.0,493759260.0,493786180.0,493789380.0,493888060.0,493832700.0,493741280.0,493824860.0,493856480.0,493881500.0,493908740.0,493923520.0,493961280.0,493883940.0,493797150.0,493796480.0,493837950.0,493872960.0,493856500.0,493791840.0,493761920.0,493830700.0,493773340.0,493624200.0,493613630.0,493652130.0,493683780.0,493714300.0,493810000.0,493963460.0,494016100.0,493961540.0,493875680.0,493838530.0,493834240.0,493793540.0,493768130.0,493780740.0,493765820.0,493716960.0,493700770.0,493754430.0,493859700.0,493939460.0,493881340.0,493735800.0,493704700.0,493751170.0,493795940.0,493867000.0,493831000.0,493756900.0,493750400.0,493730300.0,493715780.0,493683680.0,493683420.0,493701760.0,493652640.0,493719100.0,493901500.0,493937060.0,493854180.0,493796860.0,493748580.0,493805540.0,493901950.0,493872700.0,493859840.0,493880600.0,493894850.0,493874530.0,493779040.0,493752130.0,493765500.0,493750400.0,493755550.0,493799800.0,493855650.0,493835070.0,493752130.0,493648800.0,493637800.0,493783200.0,493862560.0,493767300.0,493665120.0,493688130.0,493715800.0,493651550.0,493662900.0,493788740.0,493820640.0,493732000.0,493728540.0,493822080.0,493892220.0,493903580.0,493908000.0,493988640.0,493994300.0,493874200.0,493796480.0,493802500.0,493850200.0,493819420.0,493780770.0,493811200.0,493795230.0,493792770.0,493813900.0,493839460.0,493865470.0,493790700.0,493699460.0,493649060.0,493626270.0,493695780.0,493769440.0,493788480.0,493831500.0,493847360.0,493831400.0,493894270.0,493920100.0,493848060.0,493831700.0,493878750.0,493876480.0,493742530.0,493647870.0,493724500.0,493844300.0,493953920.0,493919200.0,493781700.0,493743100.0,493765300.0,493831870.0,493921860.0,493979300.0,493938530.0,493851230.0,493840160.0,493793020.0,493719580.0,493704700.0,493731500.0,493777800.0,493765900.0,493747040.0,493667650.0,493593000.0,493715700.0,493740670.0,493685660.0,493763600.0,493735780.0,493707600.0,493815330.0,493870620.0,493853700.0,493846140.0,493899900.0,493941060.0,493911900.0,493854560.0,493822900.0,493825000.0,493789400.0,493818020.0,493861340.0,493794800.0,493778020.0,493777920.0,493810400.0,493891700.0,493872930.0,493870080.0,493908030.0,493917120.0,493836260.0,493715500.0,493775650.0,493835420.0,493746940.0,493721470.0,493795170.0,493794720.0,493739870.0,493811360.0,493900930.0,493926620.0,493916770.0,493838620.0,493815070.0,493809120.0,493701980.0,493561000.0,493508000.0,493626100.0,493789440.0,493862200.0,493870900.0,493871680.0,493855900.0,493778020.0,493712600.0,493733500.0,493807800.0,493881570.0,493950560.0,493956200.0,493810850.0,493686080.0,493691040.0,493725100.0,493755740.0,493791360.0,493822940.0,493804860.0,493813540.0,493875140.0,493905060.0,493925630.0,493902300.0,493845820.0,493834300.0,493854940.0,493824400.0,493768100.0,493816320.0,493886270.0,493899040.0,493894340.0,493890600.0,493861220.0,493746500.0,493696000.0,493706880.0,493648600.0,493650370.0,493645570.0,493693060.0,493919070.0,493951170.0,493794000.0,493729950.0,493704670.0,493708260.0,493725380.0,493730100.0,493745570.0,493797340.0,493825730.0,493778460.0,493809500.0,493863460.0,493875230.0,493917570.0,493918560.0,493918500.0,493894270.0,493830400.0,493831650.0,493815260.0,493785250.0,493804740.0,493840600.0,493882850.0,493871360.0,493845440.0,493858270.0,493863260.0,493873920.0,493885300.0,493894800.0,493904960.0,493889100.0,493851940.0,493820380.0,493790620.0,493760320.0,493794460.0,493853540.0,493883360.0,493858750.0,493746800.0,493707740.0,493692350.0,493494180.0,493358820.0,493508500.0,493701020.0,493791550.0,493835840.0,493829660.0,493836400.0,493841400.0,493839330.0,493818300.0,493723300.0,493724350.0,493743580.0,493740930.0,493854400.0,493888160.0,493840480.0,493767360.0,493701200.0,493807100.0,493898560.0,493832400.0,493768540.0,493729540.0,493693440.0,493735940.0,493728700.0,493657760.0,493680800.0,493669060.0,493678400.0,493740770.0,493698750.0,493704900.0,493721570.0,493707170.0,493792300.0,493770020.0,493672830.0,493692320.0,493727870.0,493806000.0,493831260.0,493742750.0,493728300.0,493691940.0,493627940.0,493601150.0,493496670.0,493426430.0,493504160.0,493647500.0,493744500.0,493772130.0,493737020.0,493679100.0,493700740.0,493707360.0,493678050.0,493669340.0,493632860.0,493643230.0,493596320.0,493482370.0,493535300.0,493652160.0,493649800.0,493614530.0,493692670.0,493718500.0,493581470.0,493523360.0,493546370.0,493571600.0,493599070.0,493573340.0,493534700.0,493504220.0,493519040.0,493531170.0,493531040.0,493566500.0,493551520.0,493632420.0,493745500.0,493710370.0,493690600.0,493640600.0,493598620.0,493628300.0,493601600.0,493546560.0,493530750.0,493625340.0,493677400.0,493618900.0,493604740.0,493575740.0,493516740.0,493498500.0,493549570.0,493607420.0,493617380.0,493624260.0,493611230.0,493594660.0,493542880.0,493460300.0,493487900.0,493549400.0,493571500.0,493645900.0,493664030.0,493618180.0,493598880.0,493530850.0,493542180.0,493615070.0,493627420.0,493672670.0,493685900.0,493683740.0,493624200.0,493462600.0,493449200.0,493546000.0,493574820.0,493578660.0,493576160.0,493501280.0,493422850.0,493415600.0,493395700.0,493431420.0,493511040.0,493488350.0,493449440.0,493459680.0,493485020.0,493483900.0,493471040.0,493518430.0,493451400.0,493293900.0,493393800.0,493583170.0,493598050.0,493600480.0,493641660.0,493660700.0,493621980.0,493543650.0,493543230.0,493567200.0,493564830.0,493597000.0,493621980.0,493621760.0,493549950.0,493502300.0,493601500.0,493603650.0,493538050.0,493562620.0,493565000.0,493580160.0,493509060.0,493378430.0,493439400.0,493509200.0,493500130.0,493548200.0,493545660.0,493493800.0,493463100.0,493390880.0,493366200.0,493448580.0,493456300.0,493406460.0,493465760.0,493559300.0,493610530.0,493574180.0,493510800.0,493607800.0,493666430.0,493536600.0,493433400.0,493422750.0,493443100.0,493467700.0,493522660.0,493526300.0,493405340.0,493314370.0,493385540.0,493545800.0,493530800.0,493427360.0,493532380.0,493651400.0,493595840.0,493458900.0,493406370.0,493516200.0,493578140.0,493536540.0,493535400.0,493538530.0,493517570.0,493500700.0,493482560.0,493518400.0,493569820.0,493524540.0,493497860.0,493536450.0,493506270.0,493500740.0,493577280.0,493629400.0,493610600.0,493480500.0,493354660.0,493384300.0,493516220.0,493560800.0,493399500.0,493227400.0,493192640.0,493294600.0,493563400.0,493751970.0,493716830.0,493649340.0,493602780.0,493551500.0,493536540.0,493570370.0,493589540.0,493574050.0,493552860.0,493509760.0,493456160.0,493437860.0,493513600.0,493561570.0,493478880.0,493446270.0,493446180.0,493456930.0,493544670.0,493520160.0,493476540.0,493490530.0,493444300.0,493475040.0,493489060.0,493471000.0,493533120.0,493519550.0,493512100.0,493548030.0,493561400.0,493599500.0,493566300.0,493521950.0,493514020.0,493434560.0,493363420.0,493418530.0,493560500.0,493605020.0,493554750.0,493559360.0,493600450.0,493535100.0,493327500.0,493304580.0,493419780.0,493425920.0,493508200.0,493514080.0,493460740.0,493552000.0,493541630.0,493499420.0,493518880.0,493470270.0,493452000.0,493506200.0,493550600.0,493582460.0,493599460.0,493561150.0,493543400.0,493545380.0,493524640.0,493530270.0,493510340.0,493524670.0,493525500.0,493437500.0,493447300.0,493480930.0,493456900.0,493470530.0,493538880.0,493632450.0,493613250.0,493543400.0,493581540.0,493629380.0,493559800.0,493409300.0,493342340.0,493424200.0,493550600.0,493609100.0,493591740.0,493561630.0,493467940.0,493351650.0,493413500.0,493558750.0,493575550.0,493519600.0,493480300.0,493415330.0,493404740.0,493512200.0,493564320.0,493610240.0,493666430.0,493553630.0,493392480.0,493336830.0,493427620.0,493514300.0,493491970.0,493515100.0,493556830.0,493592600.0,493604030.0,493566660.0,493532350.0,493454620.0,493461730.0,493561800.0,493546600.0,493461540.0,493425400.0,493476640.0,493562850.0,493569660.0,493531260.0,493533340.0,493560000.0,493594750.0,493619260.0,493532740.0,493372450.0,493338370.0,493415970.0,493511360.0,493618880.0,493659940.0,493597100.0,493508380.0,493505060.0,493498800.0,493426940.0,493481700.0,493564580.0,493571550.0,493598850.0,493545120.0,493499680.0,493511170.0,493498800.0,493593920.0,493633180.0,493481380.0,493390720.0,493482240.0,493598200.0,493590340.0,493586600.0,493621020.0,493611400.0,493616100.0,493601120.0,493558800.0,493498270.0,493451260.0,493478620.0,493474720.0,493488300.0,493516060.0,493449500.0,493443000.0,493474370.0,493511040.0,493601380.0,493589020.0,493547460.0,493550080.0,493568930.0,493653700.0,493601820.0,493421300.0,493420500.0,493516130.0,493499230.0,493451780.0,493454720.0,493486700.0,493507680.0,493454500.0,493419620.0,493494370.0,493557020.0,493550200.0,493507550.0,493494200.0,493534530.0,493536800.0,493563170.0,493611700.0,493563680.0,493526900.0,493542180.0,493560930.0,493593300.0,493565380.0,493505120.0,493501950.0,493468480.0,493372960.0,493333060.0,493415460.0,493600350.0,493715550.0,493640740.0,493482430.0,493341220.0,493331230.0,493447870.0,493497250.0,493499780.0,493538780.0,493556640.0,493589220.0,493579900.0,493535140.0,493589300.0,493558530.0,493488420.0,493536770.0,493564200.0,493626720.0,493625900.0,493499300.0,493490140.0,493541900.0,493505060.0,493416900.0,493378780.0,493448480.0,493519800.0,493488540.0,493492060.0,493559140.0,493547600.0,493540540.0,493515170.0,493439680.0,493460900.0,493477400.0,493460030.0,493505120.0,493480540.0,493430100.0,493495780.0,493559700.0,493610620.0,493624420.0,493554750.0,493607040.0,493630080.0,493465250.0,493409180.0,493438560.0,493431870.0,493458100.0,493467140.0,493453400.0,493472830.0,493537100.0,493580320.0,493593440.0,493609060.0,493610140.0,493635680.0,493652000.0,493626620.0,493575360.0,493544860.0,493554980.0,493501000.0,493470800.0,493520580.0,493532130.0,493545060.0,493555680.0,493554900.0,493591260.0,493581630.0,493527400.0,493482600.0,493442430.0,493438270.0,493390980.0,493319000.0,493384260.0,493508260.0,493582850.0,493621820.0,493629760.0,493572300.0,493442240.0,493398660.0,493496030.0,493592860.0,493613500.0,493610100.0,493603900.0,493568220.0,493581200.0,493603260.0,493603260.0,493619680.0,493568800.0,493526900.0,493507500.0,493467070.0,493507330.0,493562900.0,493578720.0,493569660.0,493524400.0,493539840.0,493569120.0,493484770.0,493456300.0,493558340.0,493612640.0,493621950.0,493589900.0,493518750.0,493505150.0,493491780.0,493494300.0,493500030.0,493453660.0,493452300.0,493377250.0,493199300.0,493164930.0,493336320.0,493555140.0,493653570.0,493650400.0,493607680.0,493562530.0,493513380.0,493501440.0,493554460.0,493508400.0,493512350.0,493611800.0,493626620.0,493655070.0,493614270.0
493560930.0,493598880.0,493569400.0,493530660.0,493557440.0,493590660.0,493575700.0,493554940.0,493500700.0,493401440.0,493402980.0,493462620.0,493513200.0,493526800.0,493546300.0,493612160.0,493594460.0,493537570.0,493496830.0,493503840.0,493556060.0,493544130.0,493500500.0,493436740.0,493403870.0,493442600.0,493493470.0,493523170.0,493556130.0,493619230.0,493596400.0,493566560.0,493567700.0,493496800.0,493512060.0,493570780.0,493538780.0,493500600.0,493516900.0,493573120.0,493589400.0,493559940.0,493571200.0,493589300.0,493485500.0,493387520.0,493426700.0,493467970.0,493513860.0,493499360.0,493331420.0,493304830.0,493460700.0,493492450.0,493496500.0,493546080.0,493512930.0,493488450.0,493431550.0,493408000.0,493499550.0,493549020.0,493605920.0,493646240.0,493687400.0,493737200.0,493659870.0,493597860.0,493595600.0,493588350.0,493575500.0,493567600.0,493619700.0,493619140.0,493512670.0,493427870.0,493414720.0,493413340.0,493375740.0,493346620.0,493435650.0,493579970.0,493583500.0,493574200.0,493654270.0,493608600.0,493457020.0,493363740.0,493362560.0,493433400.0,493420400.0,493338530.0,493402620.0,493479970.0,493466620.0,493543260.0,493630080.0,493647040.0,493635700.0,493583520.0,493598660.0,493573730.0,493461630.0,493452030.0,493496640.0,493551230.0,493522720.0,493455680.0,493525340.0,493546270.0,493515700.0,493514880.0,493470700.0,493481150.0,493559460.0,493649570.0,493648320.0,493531000.0,493486430.0,493513340.0,493527650.0,493500200.0,493471900.0,493523840.0,493547260.0,493572480.0,493595970.0,493495300.0,493464800.0,493542620.0,493605200.0,493642750.0,493593380.0,493510850.0,493430370.0,493402400.0,493490600.0,493498900.0,493446140.0,493491680.0,493524130.0,493526200.0,493496200.0,493385380.0,493313630.0,493372260.0,493510000.0,493583650.0,493646000.0,493721860.0,493654000.0,493589660.0,493570940.0,493527500.0,493531330.0,493575360.0,493653660.0,493592260.0,493467460.0,493444640.0,493355840.0,493298800.0,493375420.0,493557250.0,493700220.0,493575200.0,493453730.0,493502900.0,493521470.0,493532900.0,493503070.0,493450900.0,493560860.0,493650020.0,493571360.0,493468670.0,493401820.0,493382050.0,493365380.0,493371780.0,493484060.0,493626800.0,493644450.0,493530600.0,493443330.0,493392700.0,493397540.0,493506200.0,493583840.0,493625660.0,493582850.0,493465440.0,493445440.0,493441760.0,493473630.0,493492300.0,493475100.0,493628380.0,493695900.0,493635070.0,493655680.0,493627940.0,493589440.0,493557920.0,493553500.0,493594530.0,493485470.0,493291940.0,493217950.0,493274460.0,493379100.0,493477120.0,493571620.0,493642200.0,493605500.0,493541020.0,493575360.0,493561630.0,493535400.0,493570980.0,493547100.0,493570430.0,493597000.0,493605500.0,493668600.0,493578200.0,493475170.0,493504160.0,493521120.0,493571360.0,493593200.0,493576500.0,493597300.0,493578980.0,493549700.0,493595360.0,493675420.0,493652600.0,493621300.0,493703100.0,493745280.0,493719900.0,493651500.0,493609340.0,493645630.0,493623170.0,493620220.0,493719170.0,493820450.0,493819550.0,493721800.0,493696320.0,493716060.0,493737250.0,493798800.0,493864420.0,493914050.0,493873440.0,493838080.0,493862600.0,493851620.0,493849950.0,493865280.0,493930270.0,493993920.0,493964220.0,493965300.0,494010600.0,494036030.0,494039000.0,493987970.0,493959100.0,494029630.0,494072860.0,494043260.0,494073020.0,494083650.0,494031360.0,493993200.0,493883700.0,493814000.0,493887420.0,494047970.0,494253730.0,494335400.0,494326980.0,494302900.0,494300900.0,494380580.0,494340380.0,494232400.0,494231840.0,494258700.0,494269600.0,494278050.0,494331870.0,494407140.0,494423330.0,494374270.0,494346100.0,494347520.0,494327360.0,494353000.0,494328130.0,494279580.0,494330780.0,494291100.0,494260260.0,494304540.0,494278100.0,494301660.0,494269820.0,494268580.0,494451230.0,494442800.0,494284640.0,494256600.0,494325570.0,494386500.0,494395520.0,494430900.0,494402780.0,494404800.0,494558100.0,494606270.0,494533150.0,494415170.0,494376160.0,494460450.0,494426620.0,494346560.0,494308580.0,494348830.0,494453200.0,494368800.0,494267360.0,494322430.0,494410500.0,494484480.0,494415100.0,494346300.0,494349120.0,494234000.0,494213950.0,494259520.0,494208500.0,494286600.0,494383970.0,494358000.0,494313180.0,494258800.0,494219700.0,494212700.0,494244480.0,494268800.0,494294240.0,494308860.0,494264100.0,494270430.0,494277540.0,494279260.0,494289380.0,494251680.0,494296540.0,494311230.0,494251140.0,494243140.0,494212130.0,494192740.0,494196480.0,494183400.0,494197100.0,494201540.0,494179900.0,494177800.0,494184960.0,494171100.0,494152960.0,494159070.0,494204300.0,494223940.0,494137470.0,494044480.0,494080200.0,494162080.0,494175550.0,494150530.0,494109660.0,494095800.0,494124000.0,494120400.0,494117200.0,494118600.0,494078400.0,494017000.0,493977280.0,494035420.0,494095600.0,494052130.0,493967330.0,493913950.0,493977600.0,494041860.0,493975500.0,493849700.0,493778400.0,493882850.0,494025660.0,494084670.0,494111870.0,493992860.0,493882900.0,493999970.0,494061200.0,493981570.0,494005280.0,494085220.0,494091140.0,494043170.0,494009400.0,494057020.0,494110200.0,494104300.0,494090750.0,494118940.0,494152480.0,494080600.0,494027940.0,494068130.0,494019840.0,493922560.0,493847100.0,493766240.0,493758370.0,493810780.0,493848300.0,493888770.0,493921400.0,493912740.0,493906530.0,493945630.0,493947200.0,493887780.0,493918180.0,493977180.0,493976640.0,493986880.0,493966750.0,494007260.0,494081380.0,494063800.0,494090080.0,494093700.0,494045400.0,494050500.0,494025060.0,494006850.0,493984580.0,493891400.0,493810700.0,493789660.0,493890600.0,494022940.0,494001920.0,493903940.0,493861000.0,493854850.0,493851550.0,493904060.0,493970430.0,493939200.0,493900160.0,493894200.0,493882800.0,493966140.0,493999940.0,493889400.0,493898800.0,493958700.0,493957100.0,493982750.0,493968500.0,493938800.0,493885800.0,493856900.0,493886800.0,493842980.0,493814400.0,493820060.0,493828960.0,493818100.0,493783740.0,493860500.0,493917280.0,493935520.0,493958240.0,493914430.0,493868800.0,493787600.0,493798560.0,493902200.0,493911300.0,493883740.0,493898180.0,493959420.0,493885660.0,493757600.0,493777730.0,493802200.0,493817730.0,493795970.0,493832540.0,494044960.0,494099400.0,493983580.0,493984030.0,493988060.0,493911420.0,493876900.0,493859170.0,493870500.0,493886460.0,493841250.0,493867840.0,493931600.0,493931520.0,493924000.0,493899970.0,493912700.0,493990500.0,493931170.0,493842750.0,493928350.0,493909700.0,493843680.0,493904220.0,493867600.0,493744540.0,493632640.0,493592200.0,493653380.0,493806880.0,494004320.0,494028960.0,493937000.0,493892670.0,493849020.0,493833200.0,493878720.0,493936540.0,494003740.0,494024830.0,493964800.0,493938050.0,493921630.0,493873100.0,493844060.0,493830850.0,493857660.0,493919940.0,493983100.0,493988740.0,493908450.0,493810900.0,493788300.0,493807740.0,493816860.0,493895840.0,493942200.0,493963420.0,494018850.0,493950700.0,493909600.0,493919230.0,493850370.0,493843500.0,493882270.0,493885340.0,493873600.0,493888100.0,493908580.0,493817440.0,493688060.0,493760930.0,493955620.0,493963940.0,493902800.0,493952540.0,493899840.0,493765120.0,493756300.0,493818340.0,493914270.0,493996200.0,493976670.0,493979040.0,493993120.0,493942200.0,493901900.0,493847520.0,493849470.0,493871650.0,493824160.0,493848670.0,493861220.0,493841950.0,493808060.0,493680580.0,493686600.0,493803500.0,493843100.0,493881900.0,493914300.0,493891400.0,493886500.0,493908580.0,493886660.0,493902820.0,493948930.0,493934620.0,493926200.0,493918080.0,493894660.0,493874430.0,493876160.0,493866660.0,493813800.0,493839070.0,493879460.0,493826140.0,493775300.0,493747520.0,493777700.0,493864580.0,493837920.0,493727740.0,493709000.0,493782750.0,493842240.0,493853340.0,493892030.0,493957920.0,493985660.0,493899230.0,493794720.0,493824930.0,493816000.0,493823800.0,493901800.0,493782720.0,493637760.0,493590300.0,493537500.0,493605980.0,493707260.0,493761200.0,493909950.0,494046940.0,494034430.0,493947420.0,493887460.0,493878430.0,493799870.0,493739260.0,493858500.0,493933300.0,493915170.0,493908640.0,493901820.0,493960800.0,493961200.0,493887420.0,493883000.0,493868220.0,493836540.0,493832420.0,493819550.0,493824830.0,493828770.0,493796060.0,493798530.0,493804350.0,493764130.0,493769500.0,493827600.0,493903970.0,493945500.0,493912500.0,493879800.0,493876930.0,493875230.0,493856540.0,493844220.0,493854700.0,493894750.0,493899970.0,493785440.0,493708030.0,493727400.0,493702820.0,493664600.0,493704500.0,493758370.0,493765340.0,493823700.0,493856770.0,493747500.0,493699900.0,493823420.0,493942820.0,493932400.0,493848220.0,493781800.0,493786000.0,493788000.0,493764670.0,493798980.0,493812350.0,493853800.0,493917340.0,493891870.0,493934200.0,493959500.0,493879600.0,493905180.0,493936300.0,493852480.0,493838270.0,493873340.0,493825630.0,493795230.0,493808200.0,493804220.0,493823170.0,493822720.0,493814530.0,493847550.0,493782340.0,493709500.0,493722240.0,493736160.0,493852580.0,493892580.0,493854080.0,493935500.0,493907100.0,493848450.0,493876200.0,493892480.0,493891070.0,493814880.0,493779940.0,493820740.0,493827330.0,493775740.0,493757250.0,493765100.0,493734140.0,493855970.0,493915900.0,493819460.0,493872350.0,493816740.0,493716700.0,493838660.0,493956770.0,493996220.0,493948500.0,493919300.0,493955100.0,493845340.0,493710600.0,493757760.0,493831740.0,493810400.0,493789380.0,493797060.0,493828600.0,493801820.0,493665400.0,493659620.0,493790460.0,493812960.0,493805630.0,493908540.0,493969440.0,493891330.0,493777120.0,493685020.0,493697150.0,493772260.0,493772740.0,493808670.0,493894800.0,493953900.0,494006820.0,494001060.0,493974600.0,493926700.0,493877220.0,493915870.0,493939420.0,493934000.0,493879700.0,493775970.0,493772320.0,493782270.0,493762600.0,493786460.0,493818560.0,493822460.0,493724540.0,493636830.0,493690500.0,493787070.0,493842460.0,493839680.0,493844160.0,493838620.0,493801250.0,493765380.0,493767460.0,493877570.0,493893380.0,493845700.0,493897760.0,493896060.0,493877860.0,493814620.0,493758500.0,493814000.0,493804200.0,493819260.0,493922780.0,493968770.0,493929800.0,493871700.0,493868480.0,493883260.0,493865020.0,493824320.0,493811780.0,493811870.0,493840640.0,493887300.0,493788030.0,493660770.0,493672540.0,493744700.0,493808960.0,493835200.0,493906940.0,494010370.0,493985820.0,493866370.0,493817250.0,493861120.0,493863840.0,493789700.0,493692900.0,493630400.0,493646080.0,493690530.0,493709250.0,493765600.0,493915330.0,493939140.0,493736320.0,493605100.0,493626720.0,493677440.0,493823330.0,493954780.0,493915230.0,493909760.0,493972260.0,493967580.0,493924260.0,493816540.0,493706560.0,493733920.0,493818800.0,493828640.0,493819420.0,493824540.0,493792420.0,493711520.0,493634050.0,493663360.0,493752160.0,493835140.0,493917000.0,493954000.0,493941100.0,493929340.0,493924450.0,493846880.0,493764200.0,493700500.0,493620540.0,493677900.0,493794800.0,493874780.0,493925280.0,493848670.0,493802020.0,493835840.0,493835070.0,493877540.0,493920450.0,493884130.0,493809860.0,493791100.0,493819140.0,493776770.0,493797380.0,493912670.0,493918000.0,493896000.0,493914270.0,493806980.0,493663940.0,493695900.0,493804860.0,493837440.0,493806460.0,493833860.0,493912260.0,493856160.0,493767680.0,493735260.0,493603330.0,493491800.0,493566900.0,493712350.0,493766430.0,493793150.0,493919360.0,493990750.0,493943700.0,493948030.0,493924130.0,493829300.0,493834620.0,493860400.0,493836450.0,493859140.0,493904540.0,493947230.0,493954180.0,493839740.0,493694080.0,493717400.0,493834600.0,493852900.0,493790660.0,493712830.0,493690850.0,493693120.0,493736450.0,493921500.0,493953950.0,493814980.0,493798300.0,493802620.0,493829630.0,493809500.0,493714200.0,493777250.0,493834050.0,493822370.0,493841600.0,493847400.0,493908000.0,493945440.0,493922020.0,493927230.0,493931500.0,493889600.0,493844100.0,493864670.0,493879260.0,493868830.0,493854300.0,493838880.0,493858800.0,493824800.0,493818240.0,493885020.0,493874980.0,493861860.0,493880320.0,493897570.0,493908830.0,493865200.0,493850300.0,493827740.0,493759140.0,493788030.0,493826800.0,493840350.0,493899780.0,493853950.0,493770340.0,493811800.0,493879970.0,493909540.0,493894400.0,493806530.0,493742340.0,493758370.0,493739460.0,493777380.0,493900860.0,493889570.0,493812380.0,493737340.0,493738100.0,493849100.0,493787780.0,493711700.0,493772900.0,493827230.0,493941470.0,493964640.0,493931400.0,493946370.0,493864740.0,493858200.0,493909950.0,493862900.0,493835780.0,493848350.0,493844320.0,493816260.0,493794000.0,493791700.0,493833100.0,493883800.0,493842050.0,493789730.0,493785470.0,493783740.0,493791360.0,493818500.0,493914900.0,493978900.0,493920100.0,493877400.0,493832060.0,493822000.0,493933380.0,493940540.0,493865300.0,493838720.0,493789700.0,493821600.0,493861380.0,493796670.0,493741860.0,493724900.0,493797920.0,493852930.0,493823740.0,493877760.0,493980000.0,494011800.0,493965060.0,493926980.0,493865000.0,493801340.0,493830200.0,493813500.0,493842180.0,493907070.0,493904000.0,493972450.0,493941860.0,493868670.0,493896160.0,493866200.0,493855500.0,493825150.0,493795000.0,493837470.0,493792770.0,493756100.0,493785900.0,493823940.0,493878000.0,493852670.0,493797200.0,493824320.0,493866340.0,493866900.0,493899360.0,493932960.0,493906750.0,493912160.0,493874880.0,493816580.0,493890980.0,493886660.0,493806270.0,493836130.0,493781920.0,493682780.0,493761630.0,493930430.0,494028540.0,493969300.0,493904800.0,493934300.0,493950850.0,493983680.0,493925700.0,493822560.0,493864320.0,493851300.0,493799500.0,493857730.0,493886850.0,493832400.0,493766980.0,493774900.0,493833440.0,493845300.0,493835600.0,493837150.0,493802600.0,493763520.0,493763900.0,493794140.0,493871300.0,493888030.0,493788260.0,493734600.0,493741400.0,493717060.0,493719970.0,493759070.0,493808670.0,493861220.0,493840130.0,493836860.0,493862140.0,493818300.0,493792800.0,493756670.0,493729380.0,493769000.0,493786340.0,493784740.0,493775970.0,493747400.0,493713380.0,493705400.0,493688130.0,493711330.0,493838270.0,493858370.0,493805250.0,493803460.0,493766850.0,493725660.0,493703200.0,493718140.0,493691100.0,493645570.0,493739140.0,493795200.0,493746620.0,493727650.0,493712300.0,493695500.0,493719870.0,493757200.0,493764350.0,493757950.0,493743040.0,493726400.0,493734700.0,493744930.0,493775070.0,493820000.0,493779070.0,493711360.0,493690240.0,493637860.0,493590270.0,493568740.0,493602940.0,493711360.0,493751600.0,493780800.0,493771500.0,493621660.0,493567140.0,493586980.0,493583870.0
493746020.0,493918100.0,493880640.0,493769900.0,493720130.0,493745500.0,493743300.0,493719100.0,493756260.0,493719140.0,493637000.0,493657700.0,493677900.0,493664540.0,493721020.0,493817470.0,493871580.0,493867400.0,493802500.0,493743330.0,493705630.0,493595740.0,493521600.0,493633920.0,493825570.0,493930270.0,493880300.0,493740580.0,493680500.0,493738500.0,493720420.0,493610940.0,493652480.0,493740670.0,493693500.0,493696960.0,493796130.0,493837470.0,493764260.0,493670460.0,493684860.0,493756860.0,493813150.0,493827870.0,493813150.0,493832800.0,493803230.0,493734750.0,493737200.0,493745180.0,493752770.0,493708860.0,493649020.0,493702080.0,493687100.0,493639900.0,493674560.0,493665340.0,493615230.0,493540480.0,493589730.0,493737440.0,493725120.0,493690560.0,493715070.0,493686340.0,493683840.0,493705250.0,493658200.0,493590300.0,493547260.0,493522900.0,493632900.0,493817860.0,493870270.0,493878900.0,493805020.0,493648200.0,493678880.0,493767300.0,493796830.0,493823970.0,493785860.0,493754700.0,493745060.0,493770370.0,493800740.0,493747040.0,493710370.0,493726270.0,493729800.0,493689760.0,493698660.0,493762340.0,493746800.0,493702820.0,493691000.0,493724500.0,493750600.0,493743800.0,493809000.0,493797440.0,493659070.0,493617000.0,493644000.0,493637100.0,493555300.0,493523420.0,493668770.0,493724260.0,493737340.0,493838370.0,493832500.0,493820670.0,493779260.0,493704220.0,493725020.0,493703100.0,493663000.0,493615940.0,493596700.0,493669220.0,493705760.0,493731170.0,493732030.0,493739330.0,493747040.0,493653340.0,493646300.0,493703800.0,493740260.0,493787840.0,493788220.0,493826430.0,493804930.0,493725060.0,493726900.0,493711330.0,493712030.0,493693760.0,493678140.0,493789820.0,493825200.0,493763870.0,493788960.0,493825500.0,493790980.0,493763170.0,493786050.0,493832480.0,493835420.0,493725570.0,493635170.0,493673800.0,493731460.0,493772000.0,493768300.0,493736320.0,493741250.0,493690200.0,493677150.0,493756830.0,493731550.0,493695600.0,493682560.0,493635780.0,493665900.0,493632740.0,493590700.0,493656700.0,493680740.0,493725150.0,493721200.0,493657500.0,493687500.0,493706300.0,493698880.0,493685630.0,493653200.0,493615170.0,493632130.0,493741570.0,493770800.0,493746240.0,493743680.0,493721470.0,493717950.0,493698600.0,493708400.0,493750900.0,493768100.0,493788320.0,493764960.0,493750300.0,493776740.0,493754020.0,493729860.0,493731550.0,493721700.0,493730400.0,493745500.0,493748500.0,493743740.0,493722940.0,493740740.0,493769440.0,493744220.0,493713660.0,493643780.0,493556640.0,493529200.0,493485060.0,493538140.0,493722050.0,493745200.0,493690800.0,493701300.0,493649700.0,493656350.0,493724860.0,493702400.0,493662080.0,493650780.0,493691900.0,493765950.0,493762780.0,493709900.0,493717800.0,493775580.0,493788160.0,493759000.0,493724380.0,493719940.0,493783200.0,493795330.0,493746340.0,493748480.0,493735400.0,493698700.0,493663970.0,493610180.0,493589500.0,493560830.0,493572800.0,493702500.0,493736220.0,493588860.0,493472260.0,493521060.0,493664800.0,493724770.0,493661400.0,493673280.0,493779840.0,493760600.0,493738940.0,493840670.0,493830340.0,493746800.0,493685800.0,493632200.0,493686700.0,493722600.0,493709280.0,493728200.0,493729860.0,493754660.0,493729440.0,493708320.0,493796200.0,493787900.0,493673600.0,493586100.0,493567170.0,493660000.0,493705800.0,493639360.0,493595300.0,493530720.0,493512060.0,493631200.0,493740220.0,493752220.0,493647840.0,493618050.0,493736770.0,493771070.0,493821120.0,493883460.0,493858850.0,493852000.0,493738400.0,493643070.0,493723650.0,493774600.0,493769700.0,493783780.0,493792420.0,493792260.0,493812500.0,493797220.0,493749860.0,493655520.0,493525470.0,493581630.0,493704130.0,493744200.0,493735740.0,493629860.0,493625380.0,493701660.0,493715970.0,493734000.0,493671870.0,493631400.0,493713020.0,493774500.0,493794560.0,493755460.0,493665380.0,493632300.0,493659100.0,493676030.0,493717120.0,493744160.0,493657950.0,493627550.0,493652830.0,493647420.0,493742080.0,493767580.0,493730100.0,493772160.0,493708030.0,493640800.0,493618600.0,493520900.0,493505900.0,493577120.0,493639300.0,493707520.0,493733380.0,493704320.0,493704000.0,493754300.0,493749540.0,493709660.0,493726560.0,493757000.0,493796450.0,493767460.0,493688830.0,493707600.0,493698080.0,493669400.0,493674300.0,493661020.0,493673180.0,493577300.0,493491550.0,493604670.0,493708160.0,493720580.0,493667700.0,493574800.0,493582000.0,493654370.0,493688770.0,493749820.0,493752500.0,493686620.0,493718600.0,493762340.0,493784640.0,493772930.0,493681500.0,493674780.0,493735940.0,493732160.0,493688740.0,493649180.0,493647400.0,493694620.0,493742080.0,493770850.0,493766530.0,493688000.0,493637540.0,493669820.0,493704770.0,493671330.0,493508960.0,493410700.0,493473540.0,493525020.0,493608100.0,493709570.0,493769660.0,493835700.0,493811230.0,493716960.0,493664420.0,493661340.0,493699780.0,493699260.0,493630660.0,493612200.0,493643360.0,493622430.0,493644830.0,493676320.0,493586000.0,493579420.0,493648160.0,493673180.0,493752640.0,493761540.0,493744300.0,493775400.0,493698340.0,493692060.0,493771260.0,493783680.0,493803260.0,493734000.0,493629150.0,493581060.0,493553500.0,493616100.0,493646530.0,493642720.0,493691070.0,493746180.0,493775680.0,493703230.0,493654720.0,493662430.0,493655300.0,493667360.0,493627070.0,493625300.0,493661980.0,493628300.0,493626660.0,493648600.0,493632300.0,493578200.0,493515170.0,493516740.0,493550660.0,493608400.0,493711650.0,493690750.0,493591260.0,493604480.0,493606080.0,493650140.0,493767300.0,493727460.0,493641280.0,493675170.0,493748640.0,493770720.0,493765280.0,493785860.0,493797340.0,493743500.0,493677150.0,493684860.0,493679100.0,493639700.0,493617400.0,493633900.0,493731780.0,493782460.0,493723740.0,493642460.0,493607940.0,493577300.0,493541700.0,493615840.0,493686180.0,493700600.0,493749920.0,493791360.0,493756130.0,493683940.0,493687300.0,493712420.0,493786430.0,493828580.0,493721000.0,493685020.0,493660060.0,493618500.0,493661470.0,493651550.0,493663580.0,493701920.0,493647970.0,493617600.0,493591140.0,493492060.0,493479260.0,493458300.0,493344500.0,493405600.0,493584830.0,493743680.0,493819070.0,493705660.0,493607420.0,493642020.0,493772100.0,493884200.0,493830460.0,493746020.0,493687260.0,493634780.0,493645020.0,493710180.0,493790240.0,493802000.0,493770200.0,493722600.0,493689500.0,493675230.0,493636480.0,493672100.0,493708900.0,493750430.0,493816700.0,493766430.0,493734660.0,493678620.0,493602620.0,493655070.0,493652380.0,493614200.0,493630140.0,493656450.0,493709760.0,493740900.0,493722880.0,493741000.0,493831970.0,493762270.0,493589500.0,493553800.0,493487300.0,493455780.0,493547200.0,493652030.0,493735650.0,493690530.0,493678080.0,493726820.0,493687400.0,493688350.0,493686430.0,493652200.0,493712300.0,493778750.0,493778050.0,493797730.0,493812400.0,493771000.0,493739300.0,493722700.0,493735040.0,493751360.0,493690050.0,493650800.0,493680420.0,493677120.0,493681440.0,493726240.0,493697250.0,493608860.0,493567170.0,493585020.0,493683870.0,493785600.0,493766200.0,493742300.0,493762660.0,493721120.0,493675070.0,493685540.0,493708000.0,493696740.0,493689470.0,493712670.0,493687330.0,493641120.0,493573220.0,493477020.0,493497630.0,493647040.0,493777000.0,493760900.0,493682780.0,493626240.0,493571650.0,493587300.0,493630050.0,493657470.0,493659780.0,493683650.0,493778100.0,493777300.0,493730600.0,493747000.0,493736130.0,493673440.0,493612160.0,493627500.0,493654820.0,493655520.0,493681100.0,493682750.0,493678800.0,493712450.0,493744030.0,493762200.0,493768060.0,493706180.0,493593400.0,493582430.0,493690180.0,493778980.0,493789820.0,493722100.0,493629660.0,493578180.0,493564740.0,493599260.0,493629730.0,493580700.0,493509150.0,493539940.0,493693060.0,493783940.0,493744320.0,493700100.0,493662600.0,493651330.0,493666180.0,493611780.0,493599900.0,493689700.0,493677700.0,493585700.0,493555550.0,493579520.0,493634460.0,493626020.0,493624500.0,493723460.0,493740770.0,493681630.0,493681730.0,493696030.0,493670050.0,493644480.0,493650020.0,493685470.0,493717250.0,493664060.0,493661300.0,493749980.0,493753820.0,493738400.0,493698080.0,493644130.0,493696000.0,493735600.0,493752600.0,493750720.0,493670900.0,493670370.0,493720060.0,493672300.0,493631970.0,493631500.0,493597250.0,493558880.0,493561020.0,493605220.0,493598430.0,493545950.0,493545020.0,493538430.0,493547040.0,493591040.0,493621600.0,493711550.0,493819040.0,493837220.0,493770780.0,493707940.0,493687940.0,493654240.0,493625000.0,493648130.0,493722050.0,493708640.0,493649860.0,493726700.0,493750370.0,493669920.0,493625060.0,493631840.0,493698270.0,493679800.0,493597570.0,493664960.0,493756580.0,493697440.0,493632400.0,493617950.0,493650020.0,493699800.0,493619970.0,493602900.0,493691170.0,493692600.0,493690050.0,493669800.0,493692130.0,493727900.0,493635330.0,493652580.0,493715740.0,493657800.0,493672220.0,493697340.0,493687100.0,493693980.0,493629860.0,493576420.0,493597730.0,493617860.0,493604640.0,493608930.0,493613340.0,493639520.0,493735360.0,493712900.0,493689440.0,493731970.0,493668300.0,493719870.0,493777300.0,493701600.0,493672860.0,493631970.0,493676100.0,493776740.0,493772480.0,493768350.0,493740380.0,493703000.0,493720500.0,493686180.0,493648600.0,493668960.0,493674000.0,493695140.0,493703420.0,493656640.0,493641470.0,493630560.0,493630430.0,493700700.0,493710600.0,493670050.0,493680400.0,493662750.0,493635330.0,493595600.0,493529500.0,493546600.0,493602400.0,493642140.0,493675500.0,493671200.0,493653380.0,493689600.0,493750000.0,493737020.0,493720100.0,493714850.0,493660540.0,493671780.0,493745630.0,493775500.0,493756500.0,493701060.0,493661630.0,493671040.0,493697500.0,493729570.0,493727800.0,493671580.0,493600320.0,493502340.0,493480960.0,493628300.0,493753000.0,493788960.0,493771700.0,493683500.0,493684860.0,493725250.0,493672860.0,493687900.0,493759230.0,493756220.0,493705400.0,493694300.0,493741600.0,493742240.0,493713280.0,493709570.0,493685200.0,493661120.0,493678340.0,493731840.0,493757900.0,493744420.0,493717400.0,493661060.0,493602100.0,493579200.0,493644580.0,493696350.0,493722940.0,493806800.0,493715400.0,493599550.0,493657440.0,493639040.0,493639840.0,493711870.0,493733400.0,493747300.0,493725660.0,493722140.0,493761020.0,493762660.0,493739840.0,493735000.0,493752960.0,493758560.0,493735170.0,493700800.0,493699870.0,493730340.0,493727700.0,493707140.0,493707700.0,493716670.0,493712580.0,493695900.0,493719800.0,493751500.0,493711780.0,493680830.0,493658660.0,493597120.0,493601020.0,493615740.0,493630660.0,493753900.0,493819420.0,493755420.0,493673500.0,493617180.0,493652220.0,493710300.0,493716600.0,493738430.0,493729660.0,493675940.0,493680260.0,493685120.0,493661950.0,493708800.0,493754000.0,493769760.0,493754530.0,493658300.0,493624800.0,493631360.0,493648960.0,493720130.0,493702800.0,493698940.0,493728670.0,493687970.0,493678800.0,493664350.0,493658500.0,493693220.0,493695200.0,493714080.0,493740030.0,493725340.0,493702500.0,493691500.0,493676060.0,493639740.0,493621570.0,493620670.0,493621980.0,493656320.0,493676300.0,493667140.0,493667600.0,493685380.0,493699800.0,493657300.0,493662600.0,493742940.0,493747940.0,493703680.0,493656500.0,493678530.0,493771700.0,493775040.0,493739970.0,493725120.0,493726800.0,493735260.0,493668900.0,493645860.0,493697760.0,493675800.0,493618530.0,493608800.0,493645060.0,493693500.0,493719970.0,493725660.0,493724320.0,493723780.0,493696100.0,493675680.0,493708580.0,493700380.0,493675140.0,493703000.0,493706780.0,493644200.0,493513600.0,493461900.0,493553380.0,493615000.0,493650050.0,493703520.0,493735700.0,493748930.0,493719140.0,493663840.0,493653760.0,493679330.0,493696930.0,493707650.0,493713730.0,493742340.0,493746800.0,493695360.0,493682140.0,493703740.0,493720500.0,493735740.0,493746300.0,493745440.0,493710500.0,493648060.0,493642900.0,493698600.0,493677800.0,493650000.0,493672830.0,493663330.0,493671940.0,493673400.0,493678850.0,493688830.0,493646500.0,493675420.0,493736160.0,493732220.0,493724580.0,493707230.0,493687940.0,493678900.0,493657120.0,493663800.0,493683700.0,493636220.0,493618460.0,493674880.0,493681440.0,493704580.0,493727600.0,493686660.0,493703970.0,493720060.0,493712030.0,493725220.0,493701900.0,493701500.0,493700060.0,493651300.0,493640770.0,493657540.0,493669500.0,493690080.0,493688540.0,493676670.0,493677470.0,493680600.0,493688300.0,493648260.0,493616260.0,493672500.0,493696800.0,493676830.0,493703580.0,493719840.0,493674780.0,493656000.0,493676700.0,493691360.0,493724500.0,493706270.0,493683360.0,493709950.0,493714720.0,493769180.0,493736830.0,493620770.0,493652130.0,493653020.0,493595420.0,493600900.0,493634340.0,493702900.0,493688400.0,493638100.0,493669820.0,493672450.0,493639260.0,493639040.0,493634100.0,493603040.0,493569440.0,493527650.0,493608100.0,493753340.0,493724600.0,493721700.0,493771200.0,493714900.0,493703970.0,493693200.0,493688640.0,493746700.0,493722370.0,493698530.0,493723200.0,493720060.0,493739170.0,493753660.0,493742660.0,493736930.0,493675500.0,493621800.0,493665380.0,493652200.0,493574940.0,493595330.0,493643970.0,493635900.0,493634240.0,493650800.0,493665020.0,493695100.0,493698300.0,493677570.0,493704030.0,493737150.0,493748200.0,493739870.0,493721020.0,493713730.0,493694750.0,493727500.0,493790200.0,493779780.0,493747600.0,493683230.0,493603600.0,493607040.0,493609340.0,493577020.0,493588160.0,493595900.0,493546940.0,493469100.0,493481470.0,493636600.0,493716830.0,493694180.0,493743840.0,493743740.0,493698660.0,493734800.0,493770980.0,493813250.0,493799970.0,493770720.0,493818600.0,493775700.0,493715620.0,493702240.0,493637800.0,493605660.0,493608770.0,493629660.0,493704580.0,493777120.0,493781150.0,493763140.0,493779520.0,493772160.0,493740450.0,493703200.0,493676220.0,493689440.0,493677540.0,493692130.0,493751520.0,493710850.0,493640260.0,493631740.0,493634300.0,493691200.0,493719070.0,493660830.0,493716830.0,493758400.0,493667600.0,493675300.0,493681100.0,493632220.0,493639500.0,493614400.0,493642020.0,493720000.0,493685900.0,493588160.0,493532130.0,493577470.0,493678340.0,493726340.0,493752740.0,493794430.0,493747600.0,493653900.0,493669630.0,493713500.0,493683200.0,493643230.0,493637400.0,493619680.0,493499870.0,493364740.0,493405660.0,493523870.0,493579260.0,493655200.0,493757630.0,493846430.0,493844030.0,493689900.0,493628200.0,493702530.0,493710620.0,493712320.0,493724400.0,493732100.0,493757000.0,493724480.0,493712800.0,493737860.0,493694880.0
493643230.0,493664320.0,493716830.0,493701280.0,493643500.0,493644100.0,493684220.0,493690080.0,493666880.0,493641340.0,493593150.0,493605540.0,493640740.0,493616500.0,493699800.0,493771840.0,493700320.0,493671580.0,493680400.0,493703550.0,493738340.0,493770400.0,493819780.0,493770100.0,493702800.0,493701380.0,493661440.0,493649540.0,493664450.0,493636600.0,493622700.0,493629280.0,493635700.0,493648260.0,493650850.0,493657950.0,493703970.0,493730430.0,493712700.0,493658800.0,493600160.0,493630660.0,493666000.0,493673900.0,493706050.0,493699780.0,493695170.0,493703600.0,493691600.0,493698140.0,493707520.0,493687780.0,493666340.0,493670880.0,493674430.0,493664300.0,493654900.0,493653500.0,493639360.0,493603620.0,493625100.0,493706720.0,493739070.0,493716400.0,493700960.0,493692000.0,493673900.0,493634530.0,493615940.0,493660540.0,493677000.0,493662850.0,493675260.0,493672060.0,493669980.0,493645860.0,493610080.0,493637470.0,493660800.0,493687230.0,493749380.0,493776640.0,493780540.0,493747520.0,493669820.0,493662200.0,493688220.0,493644130.0,493630530.0,493668770.0,493671840.0,493658370.0,493635520.0,493646660.0,493714720.0,493728200.0,493716130.0,493750180.0,493734180.0,493682300.0,493661020.0,493664400.0,493711000.0,493728000.0,493705700.0,493714780.0,493709630.0,493681020.0,493688300.0,493727330.0,493740740.0,493723700.0,493687100.0,493671330.0,493693920.0,493691000.0,493713760.0,493749760.0,493751000.0,493750600.0,493709400.0,493708030.0,493753300.0,493725700.0,493699200.0,493719460.0,493742700.0,493759000.0,493734750.0,493720480.0,493755520.0,493748030.0,493720130.0,493727580.0,493739300.0,493760930.0,493759420.0,493745760.0,493751900.0,493725250.0,493695840.0,493708160.0,493724540.0,493730980.0,493746560.0,493750100.0,493737000.0,493735650.0,493726080.0,493739230.0,493759040.0,493733820.0,493730940.0,493724200.0,493706700.0,493709470.0,493686600.0,493707300.0,493734340.0,493705000.0,493712060.0,493725570.0,493724500.0,493733150.0,493731200.0,493741000.0,493742100.0,493716000.0,493722900.0,493763900.0,493747970.0,493710850.0,493715400.0,493714100.0,493729730.0,493733540.0,493738000.0,493793060.0,493764640.0,493706940.0,493715500.0,493711650.0,493727600.0,493729120.0,493719500.0,493760300.0,493737000.0,493691420.0,493706000.0,493715140.0,493731600.0,493722660.0,493697660.0,493738180.0,493752160.0,493711360.0,493714180.0,493733120.0,493721470.0,493699260.0,493671840.0,493685380.0,493733300.0,493704830.0,493671330.0,493710500.0,493714720.0,493708380.0,493718430.0,493732960.0,493780540.0,493752260.0,493704030.0,493738460.0,493739000.0,493722900.0,493732320.0,493748800.0,493772900.0,493730400.0,493679070.0,493707620.0,493739900.0,493732770.0,493726850.0,493734940.0,493743740.0,493751100.0,493730080.0,493716930.0,493738430.0,493716500.0,493697400.0,493716260.0,493732200.0,493757700.0,493740100.0,493732100.0,493762460.0,493728930.0,493708000.0,493725400.0,493725570.0,493724350.0,493701500.0,493702430.0,493726660.0,493713470.0,493713900.0,493741470.0,493747040.0,493740450.0,493735260.0,493724400.0,493725630.0,493719520.0,493704160.0,493721150.0,493729120.0,493721500.0,493731230.0,493726340.0,493731000.0,493741700.0,493722140.0,493729470.0,493736900.0,493722560.0,493747740.0,493752860.0,493740160.0,493742900.0,493711460.0,493712480.0,493730750.0,493709860.0,493724260.0,493741220.0,493722780.0,493707650.0,493693220.0,493701380.0,493726600.0,493715840.0,493712700.0,493748350.0,493731840.0,493697150.0,493712700.0,493718200.0,493727420.0,493723600.0,493699680.0,493726400.0,493720740.0,493682900.0,493695260.0,493699230.0,493701900.0,493694000.0,493665380.0,493697000.0,493714340.0,493677920.0,493679870.0,493699360.0,493701000.0,493689570.0,493683800.0,493713920.0,493732130.0,493697660.0,493674720.0,493693900.0,493694980.0,493686000.0,493696860.0,493725980.0,493753380.0,493697760.0,493650200.0,493686720.0,493681380.0,493663780.0,493662370.0,493664800.0,493697100.0,493665860.0,493635230.0,493678460.0,493690600.0,493678850.0,493667300.0,493666720.0,493696860.0,493690080.0,493656770.0,493671230.0,493696220.0,493679300.0,493662050.0,493671800.0,493708260.0,493740060.0,493710240.0,493698050.0,493722020.0,493692350.0,493680670.0,493703200.0,493711780.0,493722560.0,493679870.0,493658240.0,493700300.0,493681280.0,493673630.0,493705200.0,493704000.0,493701950.0,493671800.0,493657600.0,493693060.0,493686000.0,493668200.0,493686080.0,493687800.0,493678530.0,493682050.0,493670200.0,493672600.0,493682100.0,493646080.0,493645570.0,493666660.0,493658340.0,493679970.0,493675740.0,493662270.0,493673900.0,493642880.0,493647650.0,493680960.0,493669730.0,493682370.0,493694100.0,493675000.0,493666200.0,493655300.0,493662980.0,493685400.0,493670660.0,493651300.0,493661700.0,493654660.0,493636000.0,493650620.0,493665920.0,493668930.0,493656960.0,493641820.0,493668640.0,493679170.0,493664260.0,493670620.0,493670880.0,493668450.0,493642750.0,493626050.0,493669220.0,493676130.0,493649900.0,493651650.0,493655040.0,493665540.0,493660670.0,493652640.0,493677760.0,493676860.0,493643140.0,493626300.0,493637600.0,493657540.0,493655360.0,493649700.0,493676770.0,493697120.0,493662050.0,493641700.0,493666530.0,493660640.0,493638940.0,493625630.0,493639550.0,493675230.0,493637980.0,493613820.0,493660200.0,493655600.0,493632350.0,493624420.0,493634400.0,493678720.0,493660380.0,493616930.0,493634080.0,493642900.0,493626050.0,493618940.0,493629920.0,493659420.0,493661150.0,493616130.0,493611260.0,493648670.0,493643500.0,493637100.0,493648640.0,493656670.0,493665800.0,493624930.0,493607970.0,493650400.0,493632220.0,493610240.0,493635300.0,493641380.0,493639840.0,493620060.0,493613820.0,493649950.0,493641300.0,493615000.0,493628220.0,493640670.0,493649800.0,493651200.0,493644860.0,493652600.0,493645220.0,493619140.0,493629340.0,493653380.0,493649340.0,493656420.0,493657860.0,493648320.0,493651650.0,493630750.0,493630560.0,493648300.0,493642460.0,493652480.0,493638400.0,493621000.0,493634780.0,493629280.0,493639330.0,493649600.0,493634370.0,493632830.0,493624930.0,493622880.0,493626300.0,493614270.0,493628670.0,493645280.0,493629820.0,493634880.0,493666050.0,493664400.0,493639140.0,493629150.0,493629150.0,493639170.0,493626200.0,493616260.0,493655840.0,493645300.0,493610100.0,493609600.0,493589540.0,493607650.0,493616700.0,493602180.0,493655460.0,493656220.0,493622980.0,493638460.0,493634880.0,493637800.0,493625500.0,493600900.0,493628540.0,493643620.0,493618200.0,493615300.0,493645380.0,493660100.0,493646300.0,493620540.0,493635740.0,493685300.0,493657540.0,493623800.0,493645150.0,493631140.0,493622080.0,493619500.0,493624300.0,493670750.0,493648260.0,493610140.0,493647500.0,493653920.0,493635420.0,493637950.0,493653300.0,493684770.0,493665000.0,493611460.0,493619400.0,493648670.0,493636960.0,493627550.0,493638720.0,493649500.0,493649440.0,493616030.0,493616700.0,493651000.0,493617660.0,493595230.0,493618750.0,493627620.0,493641540.0,493624770.0,493619650.0,493653950.0,493627780.0,493601280.0,493612500.0,493626850.0,493646340.0,493620200.0,493607420.0,493622700.0,493603550.0,493598900.0,493616060.0,493634370.0,493638050.0,493620770.0,493605300.0,493602430.0,493607170.0,493596400.0,493609120.0,493625800.0,493606200.0,493600350.0,493583420.0,493582750.0,493603970.0,493584220.0,493598500.0,493615580.0,493600130.0,493623330.0,493619070.0,493602700.0,493602140.0,493565570.0,493572000.0,493601000.0,493590460.0,493602200.0,493621120.0,493619260.0,493612960.0,493598500.0,493600160.0,493624600.0,493616030.0,493604640.0,493633700.0,493615170.0,493581730.0,493590100.0,493587300.0,493604260.0,493601760.0,493581600.0,493619360.0,493615420.0,493585020.0,493601340.0,493610180.0,493627700.0,493625300.0,493600700.0,493626020.0,493631520.0,493596200.0,493593860.0,493614050.0,493627780.0,493618050.0,493594370.0,493609800.0,493637060.0,493604450.0,493573200.0,493601180.0,493615700.0,493602020.0,493598560.0,493618100.0,493644320.0,493608420.0,493569500.0,493594430.0,493605980.0,493603680.0,493599100.0,493605660.0,493638200.0,493609300.0,493573220.0,493606180.0,493618620.0,493607900.0,493603650.0,493604770.0,493631300.0,493625950.0,493599230.0,493614270.0,493625380.0,493613660.0,493602240.0,493602370.0,493628060.0,493635420.0,493596260.0,493592000.0,493621760.0,493591580.0,493567520.0,493593060.0,493616000.0,493636450.0,493605700.0,493589340.0,493628930.0,493609470.0,493598750.0,493627330.0,493635460.0,493640350.0,493612900.0,493595500.0,493619170.0,493622100.0,493607550.0,493616030.0,493622270.0,493600770.0,493595000.0,493580700.0,493583680.0,493619680.0,493595400.0,493583140.0,493580100.0,493550100.0,493571330.0,493574750.0,493596060.0,493641300.0,493596220.0,493568960.0,493581600.0,493570100.0,493593300.0,493613500.0,493597600.0,493584700.0,493564860.0,493570880.0,493611620.0,493595800.0,493542400.0,493538750.0,493525760.0,493495330.0,493529250.0,493572800.0,493595000.0,493588060.0,493536670.0,493522100.0,493506050.0,493474080.0,493496670.0,493525920.0,493540380.0,493510430.0,493475070.0,493534050.0,493585180.0,493573900.0,493581540.0,493605000.0,493604700.0,493576000.0,493576060.0,493617900.0,493609920.0,493565300.0,493553180.0,493563970.0,493576670.0,493566400.0,493562460.0,493591600.0,493606140.0,493577200.0,493553540.0,493584200.0,493605020.0,493590720.0,493565120.0,493561380.0,493595420.0,493540900.0,493454200.0,493458620.0,493484300.0,493525600.0,493534000.0,493522880.0,493583800.0,493603330.0,493563040.0,493559070.0,493566600.0,493556350.0,493547800.0,493580320.0,493623650.0,493601400.0,493536480.0,493522980.0,493551040.0,493538240.0,493528930.0,493533280.0,493543900.0,493592060.0,493554180.0,493486000.0,493519680.0,493543070.0,493548580.0,493552740.0,493535420.0,493546500.0,493535040.0,493536640.0,493590560.0,493586400.0,493558530.0,493570750.0,493592030.0,493607840.0,493602270.0,493594300.0,493601860.0,493599300.0,493568700.0,493571260.0,493609500.0,493591400.0,493568400.0,493570720.0,493566460.0,493562430.0,493538000.0,493546530.0,493565600.0,493552860.0,493551650.0,493532060.0,493525200.0,493534600.0,493526430.0,493555680.0,493566500.0,493511970.0,493482200.0,493500860.0,493531900.0,493548350.0,493526240.0,493518820.0,493542500.0,493527140.0,493521120.0,493563500.0,493583700.0,493579100.0,493562200.0,493558370.0,493590800.0,493589280.0,493575900.0,493603840.0,493590460.0,493548320.0,493549380.0,493556930.0,493572740.0,493573900.0,493541300.0,493541980.0,493517660.0,493455700.0,493438940.0,493456400.0,493507300.0,493543420.0,493539500.0,493558340.0,493561180.0,493505440.0,493449660.0,493441150.0,493454180.0,493461380.0,493478800.0,493549950.0,493621820.0,493555100.0,493476860.0,493499650.0,493483740.0,493466900.0,493467940.0,493476320.0,493547140.0,493548200.0,493520830.0,493556930.0,493557800.0,493539040.0,493520260.0,493531100.0,493613730.0,493634850.0,493533660.0,493483070.0,493516960.0,493484380.0,493467170.0,493523140.0,493515550.0,493447550.0,493372160.0,493377000.0,493431230.0,493385380.0,493379000.0,493464160.0,493481250.0,493445380.0,493387400.0,493379700.0,493492400.0,493563420.0,493559600.0,493577860.0,493583840.0,493595000.0,493598800.0,493591970.0,493612640.0,493594270.0,493570880.0,493569860.0,493564480.0,493574080.0,493557380.0,493541250.0,493556480.0,493559260.0,493538100.0,493510850.0,493505200.0,493482000.0,493387550.0,493259500.0,493217180.0,493257380.0,493262900.0,493317700.0,493429280.0,493466400.0,493446800.0,493401150.0,493418020.0,493426400.0,493294100.0,493257950.0,493363420.0,493456860.0,493576930.0,493629200.0,493571400.0,493520860.0,493445980.0,493372580.0,493385660.0,493397730.0,493398370.0,493458400.0,493443620.0,493353700.0,493367780.0,493420220.0,493455840.0,493431870.0,493287780.0,493235970.0,493315940.0,493395740.0,493520420.0,493685150.0,493785700.0,493751970.0,493653440.0,493581300.0,493534530.0,493530620.0,493590750.0,493645760.0,493627200.0,493606560.0,493636580.0,493701340.0,493753950.0,493732830.0,493669250.0,493608930.0,493568320.0,493504030.0,493439260.0,493434940.0,493399940.0,493361540.0,493440260.0,493542180.0,493510750.0,493458050.0,493483600.0,493518140.0,493571500.0,493529500.0,493457730.0,493458460.0,493397760.0,493382300.0,493367940.0,493381570.0,493550820.0,493627300.0,493656030.0,493709060.0,493642180.0,493584160.0,493580770.0,493542180.0,493553600.0,493587420.0,493582240.0,493634750.0,493647500.0,493590700.0,493576700.0,493556740.0,493549470.0,493593600.0,493582000.0,493569200.0,493668670.0,493612670.0,493489950.0,493584200.0,493604260.0,493542340.0,493528670.0,493520700.0,493541800.0,493507680.0,493541120.0,493676480.0,493754500.0,493756600.0,493706720.0,493686240.0,493679500.0,493620300.0,493524450.0,493475100.0,493538430.0,493586880.0,493564770.0,493530400.0,493433540.0,493295970.0,493317020.0,493549120.0,493678140.0,493624480.0,493627330.0,493651800.0,493685440.0,493744600.0,493708770.0,493643900.0,493615800.0,493605220.0,493595840.0,493577100.0,493547550.0,493541200.0,493659420.0,493730370.0,493668770.0,493674140.0,493646200.0,493575400.0,493553920.0,493525730.0,493593760.0,493702050.0,493709400.0,493642240.0,493602300.0,493625100.0,493622660.0,493631330.0,493607170.0,493566140.0,493560450.0,493403000.0,493252860.0,493334080.0,493587900.0,493835460.0,493779260.0,493631520.0,493687070.0,493636400.0,493441660.0,493422750.0,493498560.0,493497920.0,493597630.0,493793250.0,493765200.0,493632480.0,493686980.0,493768640.0,493763520.0,493736670.0,493680260.0,493594700.0,493547230.0,493628700.0,493695300.0,493665440.0,493666600.0,493663680.0,493646300.0,493644100.0,493698270.0,493747780.0,493640130.0,493520500.0,493461920.0,493400640.0,493418780.0,493581250.0,493687200.0,493565400.0,493549950.0,493652130.0,493657540.0,493681820.0,493639230.0,493693000.0,493858400.0,493816700.0,493776740.0,493755650.0,493675620.0,493663420.0,493627360.0,493659360.0,493733950.0,493691100.0,493629500.0,493626300.0,493728670.0,493836700.0,493830940.0,493796060.0,493781800.0,493766880.0,493698700.0,493550500.0,493345150.0,493236030.0,493378600.0,493550460.0,493561700.0,493555680.0,493631780.0,493768420.0,493854460.0,493873440.0,493858780.0,493741500.0,493666430.0,493646720.0,493568830.0,493611650.0,493705000.0,493662300.0,493586100.0,493618100.0,493725570.0,493729250.0,493683000.0,493677700.0,493680480.0,493728960.0,493732600.0,493679460.0,493656320.0,493624500.0,493625400.0,493647420.0,493622980.0,493655650.0,493747070.0,493756600.0,493643330.0,493492740.0
493461440.0,493572900.0,493708200.0,493632700.0,493413380.0,493485200.0,493587840.0,493477760.0,493481540.0,493574240.0,493725400.0,493771800.0,493698850.0,493816830.0,493903000.0,493831900.0,493666800.0,493527300.0,493599360.0,493622140.0,493531040.0,493580480.0,493759970.0,493804740.0,493730660.0,493759140.0,493742700.0,493733440.0,493798660.0,493754940.0,493699600.0,493631740.0,493594100.0,493670820.0,493700380.0,493712800.0,493741760.0,493766430.0,493812740.0,493741380.0,493583230.0,493587460.0,493680480.0,493559870.0,493407970.0,493513760.0,493617540.0,493635360.0,493683260.0,493692030.0,493723940.0,493758080.0,493759780.0,493761660.0,493751200.0,493742850.0,493647520.0,493534240.0,493508160.0,493570000.0,493684000.0,493704600.0,493751500.0,493821700.0,493702080.0,493602400.0,493619500.0,493555800.0,493526300.0,493549730.0,493507100.0,493574900.0,493694100.0,493734100.0,493731040.0,493661000.0,493600100.0,493569100.0,493561250.0,493613250.0,493751680.0,493903940.0,493968670.0,493954000.0,493877020.0,493829600.0,493781020.0,493701150.0,493676640.0,493687300.0,493664960.0,493575100.0,493565380.0,493673500.0,493736930.0,493728600.0,493780700.0,493864640.0,493749060.0,493638850.0,493670240.0,493613900.0,493561860.0,493521820.0,493563400.0,493744900.0,493742140.0,493668060.0,493661950.0,493486600.0,493249540.0,493316060.0,493670980.0,493849340.0,493726940.0,493667360.0,493789200.0,493871200.0,493872480.0,493867870.0,493809920.0,493783300.0,493740930.0,493607300.0,493615900.0,493723260.0,493712960.0,493694200.0,493720580.0,493688130.0,493672200.0,493658370.0,493628200.0,493706940.0,493733280.0,493629380.0,493554530.0,493590140.0,493615260.0,493552300.0,493651500.0,493784580.0,493729020.0,493617020.0,493591420.0,493771200.0,493907140.0,493897500.0,493925280.0,493893570.0,493845860.0,493839740.0,493721730.0,493576540.0,493509060.0,493464500.0,493483170.0,493501100.0,493500540.0,493544220.0,493615940.0,493696800.0,493648580.0,493581220.0,493602620.0,493706140.0,493887170.0,493808640.0,493633820.0,493659650.0,493733500.0,493824420.0,493783740.0,493701600.0,493765900.0,493795900.0,493771460.0,493753120.0,493747550.0,493777120.0,493781200.0,493733860.0,493741400.0,493750300.0,493662340.0,493643700.0,493666780.0,493662430.0,493706200.0,493730180.0,493718140.0,493610400.0,493388220.0,493301760.0,493491360.0,493756160.0,493868500.0,493830430.0,493797920.0,493815840.0,493675420.0,493511780.0,493599900.0,493716400.0,493771000.0,493800350.0,493766880.0,493771360.0,493793000.0,493742820.0,493656000.0,493634600.0,493626800.0,493662240.0,493772000.0,493736000.0,493661060.0,493689440.0,493695000.0,493649200.0,493647680.0,493676320.0,493573300.0,493447550.0,493407870.0,493483650.0,493702900.0,493906370.0,493947780.0,493690340.0,493401340.0,493361660.0,493477500.0,493694240.0,493797950.0,493820400.0,493874140.0,493861630.0,493833470.0,493766880.0,493725470.0,493729500.0,493731550.0,493724860.0,493609540.0,493563870.0,493666200.0,493732670.0,493716900.0,493656030.0,493663420.0,493727600.0,493693440.0,493643500.0,493718750.0,493725280.0,493661730.0,493724260.0,493798980.0,493849020.0,493810600.0,493668830.0,493569950.0,493441060.0,493426900.0,493625150.0,493831600.0,493942300.0,493824220.0,493665820.0,493692030.0,493658430.0,493587600.0,493626340.0,493620000.0,493593150.0,493643460.0,493735040.0,493854820.0,493903230.0,493824740.0,493744580.0,493716380.0,493691780.0,493682600.0,493690000.0,493679260.0,493706880.0,493751780.0,493770530.0,493851550.0,493839400.0,493640670.0,493486560.0,493444500.0,493539070.0,493634050.0,493566140.0,493601120.0,493735600.0,493747500.0,493740580.0,493781600.0,493832400.0,493839940.0,493722850.0,493609500.0,493633500.0,493652000.0,493654240.0,493702180.0,493779360.0,493891040.0,493859620.0,493739780.0,493697500.0,493671780.0,493732260.0,493800400.0,493761400.0,493694560.0,493616740.0,493601000.0,493612600.0,493591740.0,493637000.0,493668540.0,493650430.0,493696830.0,493723800.0,493680220.0,493688700.0,493728800.0,493725600.0,493756220.0,493797700.0,493757540.0,493693280.0,493566880.0,493313820.0,493167040.0,493355070.0,493686270.0,493832540.0,493820060.0,493830500.0,493838270.0,493799550.0,493774370.0,493753600.0,493726720.0,493694050.0,493632480.0,493628540.0,493659680.0,493658430.0,493699700.0,493712580.0,493704060.0,493741730.0,493693340.0,493663330.0,493740220.0,493773570.0,493787620.0,493752500.0,493660800.0,493644300.0,493643600.0,493639200.0,493664930.0,493623170.0,493561920.0,493572800.0,493580030.0,493588380.0,493634780.0,493696060.0,493766370.0,493777250.0,493752860.0,493769950.0,493756100.0,493653120.0,493570400.0,493569630.0,493606460.0,493679870.0,493645470.0,493509020.0,493447740.0,493464640.0,493609100.0,493751000.0,493818660.0,493859970.0,493736500.0,493651460.0,493662620.0,493605660.0,493568800.0,493529200.0,493606850.0,493786270.0,493820320.0,493774660.0,493730900.0,493706850.0,493701220.0,493742820.0,493808740.0,493761470.0,493695550.0,493675460.0,493666460.0,493666850.0,493653400.0,493657000.0,493612380.0,493567870.0,493569150.0,493513900.0,493498300.0,493545920.0,493618300.0,493761730.0,493838750.0,493789400.0,493771870.0,493739780.0,493659200.0,493689660.0,493709950.0,493665950.0,493665200.0,493660500.0,493700770.0,493736420.0,493706780.0,493692770.0,493691140.0,493711680.0,493749820.0,493709570.0,493564900.0,493439230.0,493382700.0,493446800.0,493593380.0,493636640.0,493621700.0,493581000.0,493596350.0,493688930.0,493693400.0,493698000.0,493672450.0,493582620.0,493578400.0,493583600.0,493521400.0,493552740.0,493690850.0,493671200.0,493562460.0,493581300.0,493650700.0,493632350.0,493530400.0,493528450.0,493624960.0,493648130.0,493546270.0,493511740.0,493613730.0,493649540.0,493741400.0,493825860.0,493781280.0,493788930.0,493743600.0,493715260.0,493757630.0,493748540.0,493744300.0,493736000.0,493766600.0,493753820.0,493675780.0,493649200.0,493630240.0,493658750.0,493687550.0,493679260.0,493717060.0,493724300.0,493629060.0,493539740.0,493552830.0,493562200.0,493573250.0,493633730.0,493707650.0,493800400.0,493760600.0,493676770.0,493633000.0,493500260.0,493482100.0,493550140.0,493627100.0,493734700.0,493616900.0,493519970.0,493622500.0,493628030.0,493630530.0,493657250.0,493613950.0,493687070.0,493783100.0,493740930.0,493736400.0,493761340.0,493719600.0,493713760.0,493739870.0,493738600.0,493712450.0,493652260.0,493600060.0,493609660.0,493642940.0,493677020.0,493683520.0,493582900.0,493475070.0,493495800.0,493556000.0,493486270.0,493343400.0,493373950.0,493558500.0,493706750.0,493770940.0,493730430.0,493654530.0,493666560.0,493688200.0,493685060.0,493739780.0,493721630.0,493625250.0,493599520.0,493537760.0,493479870.0,493573250.0,493681200.0,493695460.0,493648130.0,493601730.0,493605540.0,493642240.0,493634900.0,493584900.0,493617150.0,493664300.0,493635330.0,493603740.0,493569340.0,493582430.0,493671800.0,493702000.0,493662180.0,493698780.0,493741660.0,493668320.0,493605920.0,493600060.0,493561540.0,493456700.0,493385900.0,493439970.0,493529150.0,493602980.0,493712100.0,493796100.0,493730880.0,493656930.0,493623460.0,493559400.0,493601470.0,493632000.0,493636100.0,493674780.0,493609150.0,493598240.0,493625020.0,493610020.0,493627460.0,493562700.0,493546270.0,493669820.0,493741340.0,493701950.0,493623000.0,493614620.0,493604480.0,493535000.0,493537200.0,493584450.0,493595650.0,493536540.0,493451800.0,493465470.0,493623230.0,493783330.0,493730500.0,493717470.0,493825800.0,493701700.0,493602460.0,493660800.0,493584450.0,493517300.0,493545570.0,493566700.0,493599800.0,493597250.0,493555140.0,493550000.0,493540600.0,493492450.0,493562300.0,493675420.0,493587140.0,493520160.0,493593280.0,493655330.0,493681500.0,493600900.0,493598530.0,493677660.0,493640770.0,493611040.0,493547100.0,493534850.0,493609060.0,493591260.0,493630300.0,493670200.0,493601630.0,493566180.0,493621280.0,493747600.0,493756320.0,493636450.0,493598240.0,493578800.0,493520640.0,493491400.0,493430720.0,493377060.0,493456030.0,493537440.0,493552420.0,493638460.0,493658720.0,493609120.0,493656200.0,493657380.0,493654180.0,493647400.0,493596160.0,493667620.0,493685920.0,493667500.0,493728420.0,493698800.0,493673150.0,493683650.0,493675600.0,493686430.0,493684800.0,493680060.0,493671520.0,493655000.0,493599170.0,493544160.0,493523840.0,493480670.0,493511970.0,493561860.0,493530560.0,493544000.0,493561380.0,493523940.0,493479970.0,493477570.0,493589250.0,493669730.0,493583840.0,493526270.0,493574180.0,493606200.0,493682850.0,493724600.0,493589980.0,493516860.0,493590500.0,493695000.0,493763600.0,493679140.0,493607800.0,493653950.0,493645120.0,493640960.0,493683900.0,493728670.0,493766100.0,493704830.0,493629200.0,493585500.0,493531260.0,493564500.0,493592220.0,493534340.0,493504960.0,493545900.0,493623900.0,493641280.0,493577200.0,493520420.0,493563740.0,493668030.0,493678750.0,493645600.0,493636580.0,493604900.0,493587500.0,493578600.0,493566620.0,493612350.0,493663800.0,493651870.0,493675970.0,493711100.0,493637340.0,493567840.0,493570530.0,493569250.0,493585300.0,493637440.0,493668450.0,493705120.0,493734180.0,493684260.0,493618780.0,493553380.0,493511840.0,493549730.0,493603780.0,493650780.0,493668960.0,493632450.0,493598940.0,493615680.0,493658600.0,493674850.0,493647800.0,493612960.0,493611400.0,493613980.0,493630980.0,493632500.0,493543230.0,493524160.0,493588130.0,493617180.0,493706200.0,493735870.0,493641500.0,493614370.0,493613760.0,493595140.0,493600900.0,493599900.0,493637540.0,493671140.0,493627940.0,493619970.0,493634720.0,493602900.0,493604300.0,493632000.0,493665700.0,493685980.0,493655300.0,493650200.0,493618000.0,493512580.0,493467800.0,493478050.0,493503100.0,493533020.0,493510370.0,493541860.0,493651600.0,493675360.0,493669600.0,493680740.0,493610850.0,493526600.0,493505020.0,493550600.0,493607600.0,493624300.0,493646560.0,493668350.0,493671840.0,493674560.0,493719550.0,493705470.0,493584160.0,493558900.0,493578300.0,493613340.0,493648260.0,493466270.0,493257950.0,493267260.0,493432640.0,493545280.0,493499800.0,493485020.0,493552320.0,493652960.0,493709980.0,493697540.0,493691360.0,493628500.0,493623300.0,493682240.0,493690500.0,493702820.0,493642700.0,493598430.0,493620480.0,493624900.0,493640580.0,493637250.0,493694140.0,493723170.0,493600060.0,493489440.0,493481700.0,493602400.0,493750980.0,493798050.0,493730530.0,493558700.0,493448350.0,493488420.0,493553920.0,493583780.0,493631200.0,493642700.0,493606820.0,493667700.0,493660130.0,493525340.0,493530140.0,493550400.0,493482620.0,493483330.0,493467040.0,493435230.0,493532350.0,493603800.0,493563140.0,493567520.0,493611650.0,493621660.0,493625000.0,493667870.0,493678100.0,493633540.0,493656100.0,493662340.0,493625860.0,493666980.0,493719900.0,493725920.0,493719870.0,493725220.0,493726880.0,493714850.0,493689570.0,493664000.0,493608320.0,493508900.0,493493660.0,493526750.0,493586720.0,493655260.0,493583100.0,493585800.0,493681300.0,493693660.0,493740350.0,493741200.0,493724160.0,493732740.0,493679580.0,493700350.0,493698750.0,493654980.0,493705020.0,493721200.0,493663140.0,493561060.0,493513120.0,493549060.0,493524350.0,493414200.0,493269980.0,493308350.0,493546880.0,493692300.0,493734900.0,493722100.0,493649300.0,493580500.0,493555140.0,493617120.0,493650050.0,493615000.0,493616900.0,493620960.0,493602560.0,493597900.0,493644000.0,493671520.0,493629250.0,493602880.0,493595230.0,493606980.0,493558370.0,493451360.0,493495260.0,493631230.0,493715650.0,493673200.0,493590400.0,493629400.0,493572900.0,493494370.0,493608260.0,493686530.0,493691680.0,493658140.0,493622720.0,493686660.0,493732670.0,493746100.0,493769280.0,493786900.0,493772930.0,493699420.0,493645280.0,493583140.0,493534080.0,493545500.0,493560100.0,493629060.0,493694340.0,493698300.0,493691500.0,493700640.0,493722080.0,493686530.0,493658720.0,493671200.0,493688830.0,493713760.0,493693820.0,493710050.0,493732100.0,493647600.0,493593540.0,493593180.0,493595900.0,493653020.0,493655140.0,493600450.0,493623360.0,493635260.0,493606460.0,493633760.0,493677820.0,493658400.0,493616500.0,493607780.0,493621000.0,493660480.0,493664260.0,493664200.0,493680000.0,493630620.0,493636220.0,493637120.0,493576540.0,493602180.0,493622720.0,493616830.0,493617730.0,493603360.0,493629900.0,493625400.0,493575780.0,493557220.0,493542340.0,493562560.0,493640220.0,493663780.0,493655140.0,493678240.0,493636930.0,493590300.0,493620400.0,493637860.0,493660900.0,493682140.0,493659520.0,493661300.0,493654800.0,493618200.0,493610140.0,493618620.0,493639040.0,493646370.0,493629760.0,493638720.0,493636830.0,493596600.0,493591700.0,493622340.0,493627460.0,493621470.0,493580300.0,493536450.0,493585020.0,493577280.0,493527600.0,493601500.0,493648450.0,493627040.0,493607870.0,493611900.0,493636900.0,493600960.0,493628740.0,493705200.0,493670750.0,493620860.0,493590430.0,493602020.0,493662700.0,493668160.0,493668500.0,493691800.0,493658460.0,493624600.0,493637200.0,493654560.0,493689060.0,493689950.0,493625440.0,493591260.0,493616260.0,493635420.0,493631940.0,493658880.0,493678340.0,493645020.0,493596830.0,493561300.0,493514560.0,493429020.0,493435100.0,493509950.0,493569100.0,493670820.0,493650560.0,493603650.0,493678370.0,493622080.0,493546720.0,493597700.0,493617500.0,493610340.0,493547420.0,493464860.0,493497380.0,493578050.0,493634980.0,493680670.0,493709120.0,493678180.0,493619070.0,493612400.0,493639260.0,493640420.0,493596640.0,493611260.0,493636220.0,493584670.0,493600500.0,493604260.0,493574800.0,493587420.0,493544500.0,493569300.0,493635800.0,493635600.0,493662980.0,493653600.0,493629860.0,493620260.0,493583840.0,493621120.0,493663040.0,493642700.0,493643550.0,493628930.0,493599550.0,493612640.0,493593630.0,493543170.0,493563650.0,493588000.0,493602370.0,493657900.0,493669120.0,493670300.0,493661860.0,493648030.0,493670080.0,493586340.0,493537760.0,493629250.0,493656480.0,493648220.0,493652350.0,493640320.0,493639330.0,493618370.0,493578900.0,493583200.0,493608220.0,493598430.0,493599300.0,493619070.0,493615740.0,493581300.0,493582050.0,493671070.0,493698050.0,493637660.0,493643300.0,493645500.0,493610880.0,493613250.0,493575940.0,493542200.0,493563680.0,493564670.0,493602780.0,493637400.0,493601800.0,493613250.0,493633820.0,493618020.0,493638620.0,493609020.0,493570460.0,493628450.0,493652160.0,493623680.0,493604200.0,493620130.0,493673120.0,493661820.0,493618900.0,493620930.0,493635260.0,493615230.0,493570460.0,493591070.0,493647740.0
