SampleData
-14749.969,-41815.676,-26483.385,-2273.0625,-27841.402,-23308.55,-10935.957,-29401.293,-16682.29,-21286.02,-26758.904,-17259.984,-28443.518,-21036.104,-23949.469,-25929.486,-20160.385,-26576.947,-20096.59,-23089.562,-21777.918,-19227.828,-22393.752,-18097.766,-21496.906,-19551.95,-20113.758,-21675.604,-20151.592,-23118.986,-21621.234,-23266.193,-23317.203,-22938.46,-24233.291,-22899.514,-23831.875,-22650.973,-22342.045,-22124.205,-21022.793,-21369.965,-20379.225,-20609.969,-20412.586,-20337.918,-20885.66,-20787.678,-21553.664,-21765.523,-22297.691,-22735.928,-22882.002,-23339.676,-23191.459,-23253.46,-22997.926,-22649.428,-22398.934,-21933.996,-21654.666,-21191.346,-20937.111,-20743.31,-20609.62,-20746.219,-20873.379,-21197.008,-21522.998,-21926.297,-22291.17,-22504.168,-22815.229,-22932.111,-22925.256,-22896.06,-22748.23,-22533.318,-22249.713,-21946.432,-21602.494,-21312.807,-21104.39,-20936.857,-20931.6,-21055.363,-21210.908,-21373.938,-21597.51,-21930.635,-22251.5,-22446.992,-22560.924,-22621.38,-22624.115,-22619.824,-22546.314,-22360.057,-22126.53,-21870.6,-21648.809,-21460.525,-21288.053,-21172.742,-21140.223,-21219.58,-21350.932,-21485.127,-21651.58,-21851.248,-22062.348,-22249.324,-22434.805,-22559.145,-22531.96,-22509.553,-22522.502,-22379.293,-22147.02,-22018.922,-21886.623,-21608.844,-21386.91,-21329.363,-21325.592,-21350.432,-21392.018,-21510.863,-21697.988,-21870.072,-22033.07,-22143.285,-22238.566,-22309.727,-22311.67,-22316.898,-22297.338,-22220.846,-22082.277,-21928.719,-21809.97,-21688.299,-21591.473,-21523.236,-21498.47,-21537.088,-21593.764,-21702.406,-21846.324,-21909.082,-21959.215,-22087.49,-22161.484,-22166.553,-22181.209,-22209.398,-22215.023,-22099.156,-21956.771,-21888.797,-21824.738,-21767.82,-21736.365,-21709.236,-21680.9,-21704.553,-21748.158,-21756.33,-21808.209,-21863.248,-21905.455,-22008.893,-22086.297,-22094.635,-22083.426,-22067.53,-22062.496,-22049.535,-21977.637,-21878.156,-21837.271,-21807.473,-21773.443,-21802.26,-21828.367,-21843.375,-21848.434,-21830.139,-21907.629,-21982.69,-21912.201,-21859.797,-21906.15,-21932.88,-21918.377,-21958.416,-22014.34,-22006.297,-22004.25,-21950.57,-21874.691,-21912.94,-21908.932,-21861.111,-21862.09,-21859.092,-21860.979,-21826.045,-21827.678,-21882.854,-21886.725,-21894.586,-21893.533,-21863.98,-21863.541,-21892.336,-21912.477,-21906.225,-21899.326,-21907.611,-21952.494,-21994.617,-21987.066,-22002.078,-22053.828,-22008.951,-21894.947,-21899.834,-21927.186,-21876.688,-21868.314,-21872.836,-21860.62,-21834.533,-21805.156,-21891.025,-22018.033,-22061.84,-22034.945,-21969.01,-21979.938,-22012.523,-21945.37,-21934.729,-21974.12,-21944.71,-21929.35,-21922.113,-21929.15,-21972.176,-21992.422,-21958.002,-21818.297,-21726.842,-21765.676,-21768.934,-21767.383,-21828.137,-21890.008,-21911.98,-21957.385,-22023.23,-22001.271,-21955.914,-21961.783,-22020.809,-22076.395,-22039.629,-21976.408,-21922.035,-21867.342,-21847.97,-21842.027,-21829.447,-21808.654,-21817.375,-21929.826,-22053.64,-22020.883,-21905.373,-21887.75,-21952.729,-21989.38,-22009.111,-22012.652,-22006.389,-22029.889,-21989.479,-21926.135,-21878.947,-21794.547,-21775.865,-21802.586,-21818.393,-21805.947,-21779.95,-21794.943,-21783.963,-21851.03,-22005.88,-22081.3,-22119.365,-22114.523,-22091.477,-22109.518,-22100.432,-22072.47,-22052.766,-22039.77,-21989.46,-21854.771,-21735.34,-21703.127,-21699.523,-21714.574,-21741.752,-21723.088,-21730.639,-21800.018,-21866.508,-21966.064,-22026.477,-22016.287,-22070.648,-22121.81,-22126.521,-22163.736,-22165.107,-22114.432,-22032.414,-21877.54,-21750.457,-21739.562,-21762.11,-21748.271,-21749.71,-21848.326,-21941.824,-21905.045,-21861.213,-21903.412,-21946.182,-21949.281,-21950.912,-21990.486,-22054.959,-22047.893,-21991.635,-22008.35,-22018.328,-21943.299,-21855.799,-21797.121,-21782.223,-21774.252,-21754.82,-21772.602,-21827.355,-21861.686,-21852.207,-21877.238,-21957.48,-22029.643,-22098.182,-22143.955,-22118.053,-22080.367,-22059.803,-21989.906,-21906.2,-21853.975,-21819.791,-21801.027,-21763.225,-21717.377,-21701.666,-21730.55,-21804.156,-21900.125,-21972.94,-21986.803,-22000.225,-22038.182,-22052.932,-22060.861,-22097.08,-22102.508,-22023.752,-21944.32,-21895.357,-21867.72,-21871.986,-21824.35,-21765.082,-21778.615,-21823.648,-21888.156,-21934.467,-21958.488,-21955.518,-21914.215,-21917.205,-21929.578,-21982.898,-22051.697,-21988.107,-21949.234,-21950.152,-21916.17,-21923.521,-21901.143,-21863.406,-21842.213,-21859.479,-21914.838,-21897.883,-21867.617,-21853.086,-21837.777,-21888.105,-21931.965,-21938.78,-21980.05,-21998.045,-21995.117,-22067.104,-22174.098,-22221.283,-22135.766,-21993.02,-21905.588,-21822.258,-21761.809,-21755.781,-21752.604,-21759.889,-21813.559,-21884.326,-21915.398,-21926.297,-21943.041,-21995.143,-22055.799,-22046.521,-22019.6,-22012.467,-22014.895,-22027.88,-22014.295,-21967.092,-21917.773,-21902.922,-21899.94,-21872.691,-21836.502,-21870.334,-21956.71,-21932.629,-21873.412,-21874.586,-21882.887,-21928.377,-21948.01,-21943.473,-21971.152,-21968.805,-21944.943,-21920.842,-21905.766,-21901.652,-21912.305,-21933.244,-21890.477,-21844.736,-21890.223,-21952.057,-21986.33,-22019.432,-22025.562,-21993.596,-21969.457,-21968.059,-21974.305,-21958.21,-21932.7,-21939.748,-21924.5,-21898.512,-21918.312,-21920.994,-21891.088,-21879.879,-21886.148,-21886.416,-21898.654,-21911.83,-21906.4,-21939.064,-21989.459,-21949.348,-21872.707,-21915.137,-21982.29,-21979.178,-22002.54,-22003.062,-21971.12,-21964.248,-21951.824,-21986.646,-22050.04,-22009.955,-21913.904,-21882.457,-21845.586,-21812.242,-21846.852,-21915.217,-22030.607,-22052.621,-21965.549,-21948.604,-21950.656,-21948.555,-21997.887,-22020.807,-21985.14,-21996.658,-21996.639,-21907.785,-21892.44,-21932.266,-21948.854,-21914.146,-21798.521,-21797.332,-21889.746,-21943.479,-21976.482,-21948.242,-21968.184,-22055.39,-22102.12,-22105.652,-22055.047,-22035.877,-22045.887,-22030.068,-21994.975,-21907.324,-21882.697,-21901.367,-21862.773,-21861.152,-21902.646,-21984.41,-22041.072,-21967.947,-21888.002,-21866.992,-21833.252,-21840.172,-21922.496,-21948.072,-21913.238,-21899.266,-21882.018,-21904.314,-22009.049,-22126.959,-22143.34,-22084.568,-22023.354,-21921.912,-21890.695,-21933.986,-21912.74,-21884.295,-21876.271,-21878.713,-21894.166,-21909.184,-21927.723,-21935.412,-21961.78,-21974.686,-21948.27,-21937.46,-21949.129,-21973.215,-21975.205,-21987.648,-22039.541,-22013.18,-21940.457,-21952.0,-21987.092,-21990.832,-22006.85,-22043.314,-22046.584,-21975.916,-21908.174,-21868.05,-21809.955,-21802.236,-21874.787,-21969.74,-22018.545,-21972.672,-21906.656,-21900.006,-21889.941,-21878.45,-21933.053,-21958.629,-21949.477,-21966.01,-21961.898,-21979.441,-21986.992,-21951.48,-21954.105,-21992.395,-22015.123,-21974.986,-21932.572,-21920.275,-21909.031,-21946.453,-21966.658,-21921.525,-21898.135,-21939.064,-21993.502,-22009.719,-22022.715,-22035.006,-22010.418,-21947.637,-21898.867,-21895.99,-21878.527,-21889.76,-21966.945,-22019.818,-22009.498,-21966.643,-21975.822,-22002.525,-21999.854,-22038.807,-22026.223,-21959.762,-21938.1,-21921.281,-21998.125,-22087.5,-21997.744,-21928.8,-21964.703,-21953.326,-21943.023,-21955.955,-21931.215,-21928.7,-21951.783,-21957.01,-21967.785,-21967.654,-21934.705,-21887.506,-21886.072,-21914.707,-21913.97,-21954.365,-22012.037,-22012.701,-21978.555,-21965.197,-22051.875,-22126.947,-22067.693,-21997.678,-22005.738,-21993.176,-21920.178,-21899.28,-21930.17,-21942.078,-21912.123,-21856.951,-21850.498,-21881.957,-21924.494,-21945.158,-21931.969,-21944.037,-21943.988,-21943.72,-21963.396,-21958.744,-21937.03,-21893.768,-21894.832,-21950.51,-21981.201,-21996.717,-22005.574,-22001.566,-21974.865,-21930.002,-21915.05,-21953.969,-22002.111,-22001.678,-22002.715,-22027.457,-22016.352,-22001.086,-21994.234,-21968.143,-21955.8,-21946.057,-21917.918,-21890.414,-21900.51,-21952.455,-21972.375,-21973.656,-21984.68,-21984.98,-21994.934,-21994.328,-21991.184,-21947.115,-21891.0,-21946.371,-21992.299,-21987.348,-21956.537,-21864.756,-21854.58,-21892.457,-21892.44,-21899.383,-21884.092,-21889.586,-21941.611,-21988.795,-22005.486,-21967.678,-21886.855,-21855.938,-21899.139,-21918.521,-21934.75,-21964.594,-21970.816,-21963.576,-21926.088,-21930.316,-21987.418,-22032.496,-22066.162,-22070.328,-22035.191,-21922.818,-21858.066,-21968.977,-22024.307,-21933.512,-21883.068,-21903.896,-21911.756,-21901.166,-21913.209,-21934.59,-21957.105,-21988.926,-21960.361,-21889.383,-21873.105,-21876.52,-21887.717,-21922.4,-21935.945,-21945.975,-21956.81,-21954.734,-21946.096,-21920.766,-21926.633,-21983.104,-22019.588,-22030.709,-22029.424,-21988.236,-21947.89,-21940.836,-21962.58,-22004.275,-22030.582,-22010.871,-21978.014,-22010.885,-22013.32,-21929.084,-21887.318,-21890.35,-21933.322,-21972.207,-21956.975,-21996.484,-22046.105,-22022.15,-21961.04,-21905.156,-21927.576,-21963.652,-21934.264,-21927.494,-21945.744,-21930.803,-21901.092,-21872.625,-21873.543,-21919.701,-21955.967,-21970.062,-22015.518,-22065.738,-22061.496,-21989.594,-21904.008,-21911.805,-21948.072,-21922.041,-21909.578,-21917.52,-21917.117,-21915.246,-21907.354,-21910.363,-21962.117,-22059.61,-22088.812,-22020.895,-21934.992,-21899.111,-21924.209,-21934.729,-21965.102,-21989.898,-21947.623,-21913.947,-21889.504,-21924.67,-21982.832,-21962.523,-21946.697,-21946.582,-21943.248,-21929.885,-21900.182,-21922.027,-21969.695,-21981.822,-21987.45,-21986.441,-21941.857,-21917.188,-21951.94,-21970.049,-21954.488,-21967.463,-22015.793,-22027.113,-21980.004,-21930.852,-21942.53,-21970.725,-21930.73,-21900.049,-21909.01,-21926.793,-21965.285,-21958.6,-21930.178,-21930.088,-21946.885,-21984.246,-21984.871,-21961.447,-21948.967,-21906.148,-21864.254,-21889.8,-21969.303,-22018.594,-22027.822,-22050.824,-22047.666,-22002.07,-21999.129,-22028.633,-22003.223,-21966.477,-21979.576,-21983.842,-21956.572,-21912.389,-21857.06,-21884.77,-21977.307,-21993.807,-21962.01,-21930.87,-21945.453,-22028.521,-22039.977,-21979.836,-21927.26,-21907.555,-21956.691,-21954.057,-21909.246,-21950.846,-21972.879,-21984.725,-22038.87,-21996.639,-21914.414,-21911.271,-21956.35,-22009.697,-22023.885,-21998.615,-21955.773,-21926.79,-21938.754,-21963.605,-21959.658,-21917.113,-21934.541,-21997.824,-21987.395,-21962.275,-21950.787,-21944.334,-21963.018,-21949.582,-21936.143,-21939.508,-21921.95,-21938.842,-21981.58,-21989.338,-21993.867,-22021.293,-22015.738,-21994.11,-21981.75,-21939.041,-21911.988,-21902.535,-21925.725,-22012.19,-22052.822,-22038.795,-21997.764,-21959.246,-21997.303,-22017.523,-21994.766,-21989.725,-21960.014,-21947.828,-21965.625,-21961.291,-21959.166,-21947.334,-21932.814,-21945.086,-21961.73,-21969.842,-21970.451,-21977.34,-21961.766,-21925.402,-21922.879,-21942.31,-22000.506,-22080.326,-22086.27,-22055.014,-22089.625,-22104.451,-21987.523,-21910.225,-21949.771,-21946.627,-21927.553,-21940.498,-21959.467,-21988.988,-21999.18,-22024.398,-22023.242,-21967.414,-21956.045,-21955.182,-21924.662,-21892.77,-21895.115,-21949.629,-21982.502,-21985.672,-21995.516,-21994.139,-21971.32,-21950.006,-21961.102,-21962.525,-21958.002,-22032.672,-22118.08,-22110.771,-22054.951,-22001.318,-21997.527,-22067.695,-22118.062,-22058.451,-21975.75,-21997.338,-22045.207,-22039.607,-21997.277,-21932.81,-21915.36,-21956.305,-21989.352,-21954.998,-21893.28,-21900.37,-21951.246,-21985.55,-21996.076,-21999.486,-21980.895,-21954.32,-21967.445,-21977.566,-21953.188,-21942.344,-21969.447,-21980.14,-21979.408,-21999.842,-21984.77,-21948.033,-21931.902,-21915.771,-21899.697,-21931.684,-21986.25,-21988.893,-21972.193,-21951.594,-21943.592,-21963.273,-21960.25,-21951.258,-21953.1,-21962.422,-21976.432,-21981.744,-22011.686,-22061.639,-22048.338,-21977.064,-21955.332,-21976.047,-21993.12,-21993.0,-21950.465,-21942.914,-21949.182,-21902.725,-21911.111,-21930.758,-21919.535,-21967.986,-21972.314,-21917.86,-21910.434,-21927.625,-21944.785,-21937.418,-21929.531,-21945.773,-21956.469,-21988.06,-22045.988,-22081.746,-22082.03,-22057.025,-21999.293,-21950.746,-21939.082,-21952.588,-21989.951,-21969.266,-21918.8,-21954.654,-21993.053,-21968.54,-21966.604,-21999.775,-22012.248,-21995.037,-21966.578,-21973.695,-22015.47,-22023.775,-21994.898,-21955.23,-21948.963,-21979.68,-21987.887,-21994.145,-21984.135,-21967.488,-21997.504,-22009.064,-22022.934,-22038.18,-22014.861,-22056.72,-22100.336,-22065.783,-22017.402,-21923.527,-21861.479,-21895.527,-21929.252,-21965.49,-21976.418,-21966.016,-21973.453,-21945.111,-21950.863,-21982.48,-21966.95,-21950.928,-21943.137,-21977.395,-22011.777,-21975.324,-21927.93,-21920.01,-21976.848,-22068.33,-22128.096,-22083.135,-21956.139,-21919.697,-21956.36,-21962.424,-21993.973,-22030.803,-22054.967,-22091.021,-22039.877,-21953.148,-21949.014,-21932.941,-21907.615,-21927.266,-21930.729,-21938.307,-21943.002,-21923.287,-21933.055,-21955.758,-21966.574,-21971.738,-21968.379,-21969.201,-21974.78,-21981.166,-22002.895,-22015.027,-21969.793,-21946.5,-22018.572,-22063.79,-22033.96,-22024.938
-21993.064,-21909.104,-21902.518,-21964.17,-22008.672,-22055.014,-22098.334,-22128.96,-22107.803,-22025.357,-22011.34,-22042.096,-22007.95,-21973.281,-21947.746,-21913.693,-21914.496,-21946.102,-22008.03,-22006.195,-21950.955,-21961.988,-21954.578,-21959.898,-22013.865,-22029.143,-22029.082,-21991.656,-21959.998,-21941.21,-21908.123,-21929.738,-21943.979,-21969.625,-22015.56,-21991.248,-21954.553,-21947.143,-21967.916,-21992.418,-21987.766,-21977.52,-21973.006,-21974.947,-21966.277,-21964.693,-21985.617,-21984.508,-21977.43,-22004.8,-22037.352,-22055.373,-22060.355,-22020.482,-21966.822,-21954.275,-21989.846,-22051.117,-22045.998,-22017.38,-22044.232,-22038.44,-22020.717,-22006.025,-21956.307,-21954.615,-21969.521,-21951.582,-21947.324,-21947.213,-21960.875,-21982.125,-21985.541,-21989.021,-21992.945,-21995.914,-22018.6,-22087.191,-22122.605,-22053.986,-21991.068,-21967.477,-21958.727,-22002.613,-22030.45,-22033.67,-22057.469,-22032.164,-21985.74,-21987.152,-22005.715,-22031.348,-22106.988,-22155.855,-22040.545,-21947.031,-21986.213,-21971.477,-21931.486,-21921.275,-21933.617,-21976.342,-21981.926,-21967.854,-21954.428,-21947.79,-21948.275,-21950.81,-21981.734,-22010.525,-22026.244,-22012.562,-22000.49,-22031.758,-22028.924,-22023.54,-22034.96,-21988.672,-21965.287,-21987.1,-21996.549,-22014.336,-21992.828,-21961.188,-21981.004,-22005.715,-22020.238,-21987.795,-21951.77,-21961.781,-21958.09,-21965.139,-21990.986,-21997.24,-21983.523,-21972.074,-21977.145,-21983.332,-22005.531,-22037.268,-22042.258,-22014.287,-22008.203,-22077.15,-22139.77,-22109.598,-22028.076,-21974.744,-21952.967,-21942.182,-21975.184,-22002.926,-22011.96,-22035.832,-21984.332,-21937.354,-21968.62,-21974.592,-21983.947,-21985.633,-21972.121,-21991.162,-22003.73,-22017.92,-22034.53,-22041.455,-22037.299,-22012.576,-21976.85,-21944.203,-21955.498,-21995.518,-22030.092,-22054.56,-22032.74,-21997.127,-22025.623,-22076.072,-22074.57,-22063.877,-22070.252,-22041.963,-21993.121,-21970.139,-21959.967,-21960.652,-21980.953,-21982.09,-21973.535,-21985.744,-21990.742,-22003.027,-22026.84,-22020.63,-21996.95,-21989.361,-21998.947,-21998.598,-21991.072,-21987.496,-21971.393,-21974.273,-22004.207,-22019.795,-22036.549,-22066.844,-22120.309,-22173.05,-22145.342,-22077.371,-21992.51,-21935.828,-21985.117,-21998.121,-21985.809,-22031.14,-22027.645,-21981.86,-21953.879,-21956.51,-21950.05,-21942.654,-21972.723,-22002.525,-22027.143,-22019.123,-21991.736,-21984.64,-21993.09,-22013.492,-22017.918,-22024.715,-22047.744,-22069.727,-22064.463,-22042.275,-22047.947,-22043.81,-22030.16,-22028.553,-22037.674,-22077.244,-22089.01,-22077.549,-22085.754,-22055.074,-21999.828,-21968.352,-21966.486,-22029.432,-22096.117,-22062.734,-22017.545,-22034.076,-22014.703,-21972.33,-21984.596,-22032.457,-22068.873,-22064.951,-22067.025,-22040.428,-21966.33,-21968.781,-21997.389,-21998.822,-22017.65,-22006.676,-21983.898,-21989.91,-22013.104,-22024.564,-22013.621,-22005.61,-21996.8,-21995.734,-21998.523,-22003.184,-22008.715,-22006.072,-22006.484,-21995.824,-22014.928,-22054.516,-22060.117,-22065.514,-22070.816,-22076.898,-22074.908,-22041.867,-22006.936,-21980.023,-21979.182,-21996.475,-22002.408,-22024.656,-22039.41,-22018.457,-22009.27,-22017.035,-22028.562,-22032.982,-22026.898,-22046.05,-22064.676,-22037.705,-21998.324,-21990.023,-21984.012,-21969.854,-21986.43,-21995.293,-21983.486,-21987.94,-22005.916,-22036.398,-22050.48,-22035.059,-22017.59,-22019.346,-22037.93,-22030.68,-21995.486,-21995.879,-22068.758,-22152.627,-22135.465,-22018.734,-21935.566,-21932.947,-21965.14,-22019.566,-22069.21,-22102.57,-22100.465,-22080.848,-22064.4,-22005.04,-21986.422,-22015.064,-22027.117,-22038.75,-22012.08,-21994.355,-21983.854,-21990.432,-22047.383,-22036.66,-22017.805,-22044.553,-22048.748,-22045.0,-22031.39,-22035.951,-22045.695,-22025.857,-22015.613,-22025.76,-22036.475,-22033.172,-22022.45,-22007.318,-22009.488,-22039.37,-22047.9,-22023.53,-22002.918,-22010.215,-22038.3,-22057.668,-22041.725,-22035.516,-22073.627,-22105.156,-22113.72,-22074.553,-22023.19,-22045.824,-22104.977,-22148.17,-22149.635,-22117.822,-22038.854,-21941.098,-21941.55,-21968.81,-21982.928,-22018.352,-22005.826,-22001.963,-22023.44,-22044.287,-22076.127,-22050.273,-22021.916,-22025.787,-22006.492,-21990.71,-22006.012,-22087.512,-22166.363,-22155.74,-22120.555,-22076.053,-22022.318,-21998.904,-22003.309,-22019.0,-22023.426,-22034.941,-22054.9,-22068.607,-22093.547,-22097.59,-22080.52,-22082.299,-22096.457,-22100.643,-22084.82,-22070.85,-22049.168,-22009.842,-22001.957,-22028.271,-22050.969,-22054.09,-22044.17,-22039.625,-22047.473,-22063.943,-22068.549,-22055.371,-22043.842,-22031.896,-22038.445,-22071.78,-22084.48,-22089.562,-22079.86,-22030.332,-22011.531,-22013.006,-22003.375,-22009.766,-22029.023,-22063.93,-22076.889,-22068.89,-22088.666,-22118.268,-22111.79,-22081.422,-22110.697,-22157.22,-22122.693,-22055.559,-22019.676,-22021.66,-22045.63,-22054.242,-22040.81,-22042.81,-22029.734,-22003.479,-22034.24,-22079.268,-22100.559,-22089.322,-22053.064,-22039.162,-22029.748,-22027.285,-22032.713,-22030.521,-22025.248,-22009.023,-22008.168,-22018.24,-22048.32,-22116.076,-22155.297,-22169.238,-22193.637,-22144.365,-22035.973,-22040.098,-22079.309,-22025.752,-22044.676,-22126.871,-22158.777,-22183.686,-22150.4,-22082.633,-22028.033,-21966.162,-22011.143,-22107.174,-22115.559,-22086.033,-22017.234,-21976.342,-22032.527,-22073.059,-22100.156,-22137.293,-22128.16,-22109.09,-22099.566,-22089.951,-22103.123,-22094.773,-22061.953,-22080.568,-22067.723,-22003.049,-22024.52,-22064.861,-22054.457,-22052.895,-22049.57,-22045.07,-22051.828,-22060.045,-22064.904,-22071.148,-22076.773,-22071.883,-22084.041,-22090.32,-22066.334,-22066.936,-22081.852,-22084.316,-22114.057,-22175.588,-22226.72,-22200.951,-22108.793,-22072.22,-22076.9,-22049.812,-22032.078,-22037.102,-22053.613,-22055.502,-22060.262,-22091.58,-22086.383,-22061.87,-22040.096,-22023.705,-22030.984,-22032.756,-22031.861,-22022.295,-22022.139,-22032.041,-22022.256,-22037.775,-22072.113,-22084.828,-22076.434,-22112.43,-22209.842,-22213.582,-22136.174,-22111.613,-22084.236,-22074.916,-22141.799,-22184.342,-22175.994,-22135.29,-22077.293,-22051.232,-22029.2,-22006.152,-22000.098,-22002.734,-22029.848,-22064.693,-22091.541,-22109.705,-22132.139,-22160.203,-22143.006,-22077.646,-22020.33,-22024.312,-22068.32,-22068.293,-22046.219,-22075.492,-22103.395,-22074.754,-22030.72,-22040.193,-22136.256,-22207.773,-22231.62,-22274.377,-22212.275,-22087.469,-22033.457,-22015.389,-22040.707,-22053.527,-22041.06,-22056.19,-22063.197,-22060.695,-22040.18,-22021.34,-22025.527,-22030.148,-22048.926,-22075.174,-22099.377,-22097.959,-22082.135,-22131.758,-22192.99,-22146.312,-22058.902,-22049.668,-22081.555,-22101.432,-22122.512,-22125.12,-22089.418,-22057.215,-22061.69,-22065.635,-22049.307,-22058.154,-22099.068,-22117.27,-22100.941,-22078.375,-22055.941,-22046.572,-22054.348,-22059.133,-22042.963,-22043.0,-22065.969,-22057.785,-22094.244,-22138.172,-22101.576,-22093.22,-22085.723,-22070.887,-22078.223,-22052.744,-22050.814,-22058.137,-22072.867,-22124.56,-22165.14,-22183.887,-22174.87,-22166.553,-22127.727,-22070.184,-22084.299,-22094.361,-22088.969,-22122.31,-22124.148,-22087.281,-22087.666,-22119.871,-22102.94,-22064.365,-22054.566,-22040.873,-22040.645,-22040.502,-22022.04,-22021.191,-22033.395,-22051.656,-22079.95,-22099.04,-22078.033,-22061.068,-22081.658,-22112.682,-22152.662,-22153.283,-22119.887,-22096.584,-22094.943,-22124.602,-22144.863,-22175.344,-22183.734,-22124.062,-22076.213,-22056.0,-22060.795,-22054.932,-22014.904,-22005.46,-22014.203,-22036.242,-22066.71,-22092.785,-22130.879,-22133.883,-22130.57,-22154.266,-22146.553,-22113.09,-22076.393,-22057.99,-22072.352,-22065.283,-22055.584,-22083.729,-22103.895,-22129.387,-22131.297,-22091.834,-22107.56,-22128.615,-22125.566,-22159.148,-22161.191,-22117.875,-22101.08,-22091.217,-22058.23,-22055.03,-22073.04,-22057.266,-22059.844,-22118.586,-22154.955,-22133.426,-22111.068,-22082.03,-22065.363,-22099.164,-22131.688,-22159.373,-22145.438,-22093.646,-22089.424,-22081.65,-22057.908,-22069.092,-22088.479,-22111.014,-22158.76,-22183.016,-22124.895,-22062.096,-22080.389,-22113.48,-22091.48,-22071.219,-22071.58,-22062.43,-22088.03,-22115.404,-22113.75,-22117.746,-22108.84,-22100.17,-22094.3,-22088.438,-22091.775,-22091.94,-22096.422,-22096.127,-22099.69,-22108.95,-22113.828,-22120.543,-22112.553,-22099.264,-22094.342,-22093.969,-22099.756,-22107.994,-22110.04,-22092.951,-22080.154,-22107.576,-22149.594,-22160.066,-22144.658,-22131.477,-22120.889,-22117.633,-22120.648,-22102.768,-22077.621,-22065.979,-22065.57,-22069.365,-22073.55,-22128.445,-22185.025,-22148.93,-22116.27,-22113.17,-22070.402,-22054.676,-22074.57,-22073.01,-22073.303,-22081.084,-22079.479,-22105.945,-22173.883,-22191.402,-22138.89,-22126.441,-22154.969,-22164.613,-22177.49,-22166.984,-22110.092,-22081.191,-22075.023,-22057.85,-22063.863,-22082.973,-22122.338,-22163.924,-22157.725,-22139.422,-22117.514,-22126.836,-22167.324,-22137.46,-22111.938,-22153.865,-22149.328,-22115.543,-22151.2,-22181.717,-22128.828,-22102.969,-22126.979,-22105.627,-22083.764,-22097.78,-22101.928,-22098.246,-22104.324,-22118.697,-22110.53,-22088.049,-22101.473,-22108.201,-22084.76,-22077.064,-22081.002,-22102.898,-22131.61,-22142.29,-22138.709,-22112.713,-22120.113,-22178.121,-22224.924,-22215.676,-22132.256,-22086.367,-22124.934,-22131.986,-22110.715,-22114.557,-22109.453,-22086.625,-22075.838,-22075.365,-22097.398,-22138.451,-22131.145,-22103.22,-22123.094,-22154.938,-22154.83,-22131.68,-22112.004,-22088.375,-22075.635,-22079.883,-22064.855,-22072.2,-22090.623,-22106.445,-22167.213,-22191.65,-22162.69,-22134.924,-22108.416,-22109.871,-22117.66,-22120.172,-22129.434,-22156.283,-22235.076,-22284.873,-22201.814,-22067.027,-22039.707,-22091.582,-22092.547,-22066.31,-22079.617,-22122.006,-22144.957,-22134.725,-22124.936,-22107.816,-22101.816,-22134.059,-22149.783,-22119.178,-22076.531,-22076.152,-22138.82,-22198.969,-22211.184,-22197.377,-22155.113,-22120.408,-22131.494,-22145.178,-22159.473,-22169.969,-22149.39,-22127.885,-22122.625,-22141.574,-22171.12,-22175.38,-22148.354,-22093.016,-22077.977,-22112.568,-22105.338,-22077.707,-22086.926,-22147.658,-22187.578,-22153.8,-22146.1,-22153.473,-22138.783,-22129.375,-22118.303,-22122.242,-22113.613,-22120.29,-22164.305,-22172.598,-22149.498,-22169.967,-22233.791,-22213.627,-22133.598,-22109.21,-22089.672,-22073.2,-22098.387,-22128.396,-22138.041,-22130.975,-22130.635,-22152.1,-22170.988,-22160.557,-22148.465,-22136.672,-22108.791,-22107.275,-22118.81,-22120.693,-22136.371,-22138.727,-22116.197,-22099.195,-22118.305,-22141.406,-22119.324,-22125.74,-22193.924,-22242.43,-22220.9,-22182.832,-22190.666,-22155.984,-22080.025,-22086.174,-22119.154,-22134.639,-22164.518,-22161.727,-22134.521,-22142.162,-22203.928,-22249.791,-22217.81,-22186.352,-22166.299,-22141.334,-22148.012,-22141.375,-22129.266,-22115.229,-22074.271,-22097.621,-22158.73,-22143.836,-22116.635,-22142.543,-22176.355,-22182.988,-22184.057,-22189.807,-22151.496,-22092.73,-22061.943,-22075.89,-22144.955,-22172.125,-22158.064,-22195.572,-22229.46,-22211.773,-22173.412,-22153.102,-22140.99,-22118.666,-22116.227,-22130.285,-22161.422,-22164.494,-22113.982,-22111.49,-22148.955,-22169.922,-22200.873,-22235.23,-22230.76,-22164.568,-22123.48,-22138.93,-22123.682,-22105.084,-22114.096,-22130.594,-22139.518,-22123.21,-22119.986,-22118.656,-22102.729,-22108.436,-22126.742,-22119.014,-22077.078,-22068.936,-22112.932,-22155.578,-22179.617,-22167.068,-22149.777,-22164.314,-22178.72,-22201.414,-22226.715,-22211.287,-22181.986,-22182.078,-22234.809,-22273.604,-22194.55,-22122.314,-22142.055,-22138.46,-22118.701,-22102.57,-22099.285,-22123.246,-22107.715,-22108.69,-22145.645,-22159.584,-22167.91,-22173.24,-22218.031,-22265.514,-22216.738,-22135.857,-22098.377,-22086.26,-22089.883,-22101.635,-22101.455,-22100.344,-22109.7,-22136.102,-22159.334,-22151.098,-22146.357,-22166.273,-22192.074,-22180.775,-22155.223,-22173.78,-22166.473,-22128.516,-22143.094,-22188.695,-22197.934,-22139.447,-22091.287,-22134.42,-22172.47,-22120.732,-22089.844,-22155.49,-22205.871,-22187.26,-22166.186,-22142.885,-22135.889,-22198.918,-22251.398,-22216.186,-22154.344,-22098.322,-22050.43,-22073.605,-22116.137,-22117.89,-22149.318,-22187.88,-22210.848,-22224.021,-22195.928,-22144.6,-22083.977,-22077.883,-22120.79,-22133.32,-22127.639,-22115.586,-22120.94,-22134.86,-22137.035,-22143.146,-22142.371,-22166.104,-22221.365,-22257.768,-22240.633,-22172.371,-22134.176,-22181.584,-22209.518,-22160.303,-22134.898,-22143.271,-22141.898,-22135.697,-22121.174,-22116.207,-22122.557,-22119.436,-22115.775,-22139.686,-22160.523,-22146.57,-22140.531,-22139.89,-22123.121,-22118.424,-22133.52,-22165.492,-22218.998,-22224.604,-22150.725,-22137.082,-22202.355,-22199.162,-22172.854,-22233.123,-22288.258,-22265.05,-22229.273,-22194.049
-22147.844,-22149.082,-22167.166,-22142.896,-22143.764,-22168.861,-22177.576,-22190.18,-22157.467,-22110.707,-22127.406,-22134.707,-22120.291,-22133.545,-22136.963,-22130.838,-22138.129,-22154.812,-22166.584,-22147.016,-22131.578,-22135.293,-22139.37,-22168.04,-22209.611,-22231.9,-22220.658,-22181.428,-22133.855,-22105.709,-22108.387,-22097.826,-22095.602,-22148.084,-22184.463,-22147.41,-22092.568,-22092.791,-22110.045,-22075.824,-22055.637,-22098.238,-22133.457,-22143.633,-22151.186,-22146.943,-22140.12,-22130.297,-22108.049,-22079.998,-22053.79,-22046.072,-22063.797,-22099.443,-22131.582,-22133.785,-22112.094,-22085.127,-22083.188,-22112.236,-22119.965,-22105.717,-22119.234,-22158.984,-22169.885,-22142.99,-22113.965,-22061.098,-22002.729,-21991.662,-22017.395,-22035.107,-22021.502,-22032.04,-22049.898,-22022.984,-21994.928,-21988.328,-22008.867,-22030.043,-22026.5,-22008.104,-21988.318,-21997.611,-22009.252,-22010.53,-22002.736,-21989.242,-22016.08,-22056.857,-22059.9,-22015.79,-21994.447,-22030.877,-22062.652,-22082.146,-22065.54,-22018.518,-21967.8,-21921.854,-21931.152,-21953.666,-21955.715,-21953.62,-21957.457,-21998.11,-22055.623,-22106.64,-22098.217,-22017.438,-21959.635,-21930.334,-21918.709,-21956.863,-21975.746,-21960.508,-21972.418,-21970.05,-21949.957,-21974.85,-22041.352,-22089.152,-22046.645,-21980.105,-21980.398,-21978.01,-21969.52,-21987.818,-21986.957,-22001.734,-22029.406,-22030.502,-22034.227,-22034.266,-22043.873,-22058.404,-22064.768,-22076.42,-22062.473,-22046.14,-22035.01,-22029.738,-22045.328,-22038.217,-22020.822,-22001.812,-22010.51,-22041.943,-22029.088,-22047.24,-22103.676,-22148.738,-22198.5,-22162.904,-22046.637,-22024.115,-22088.615,-22110.846,-22114.744,-22112.49,-22093.516,-22075.742,-22034.22,-22031.254,-22070.764,-22087.414,-22100.172,-22112.836,-22111.443,-22095.451,-22078.957,-22098.11,-22148.238,-22134.84,-22082.258,-22091.96,-22104.447,-22082.146,-22060.791,-22085.154,-22131.62,-22153.604,-22184.424,-22148.621,-22099.865,-22170.902,-22190.387,-22111.898,-22103.596,-22145.812,-22167.809,-22168.549,-22138.297,-22126.604,-22150.438,-22151.984,-22132.533,-22116.947,-22121.998,-22136.385,-22167.592,-22241.863,-22248.896,-22157.73,-22111.012,-22114.297,-22115.97,-22144.367,-22155.225,-22123.14,-22117.896,-22130.352,-22123.865,-22120.502,-22101.871,-22079.037,-22120.283,-22187.877,-22216.451,-22206.633,-22165.83,-22139.705,-22130.504,-22116.076,-22136.902,-22176.217,-22186.451,-22167.832,-22164.25,-22179.402,-22179.09,-22192.012,-22202.84,-22203.785,-22205.191,-22172.61,-22155.488,-22183.26,-22209.049,-22197.42,-22178.752,-22196.205,-22210.887,-22204.363,-22193.97,-22215.145,-22239.287,-22218.684,-22211.156,-22187.436,-22161.635,-22198.965,-22221.215,-22206.818,-22165.955,-22148.773,-22181.055,-22168.602,-22165.068,-22188.467,-22177.416,-22172.793,-22158.883,-22156.617,-22176.227,-22176.225,-22188.576,-22192.242,-22175.734,-22191.367,-22227.045,-22224.996,-22206.623,-22224.252,-22258.377,-22293.87,-22293.078,-22231.531,-22180.486,-22180.918,-22186.336,-22150.55,-22118.412,-22137.34,-22170.914,-22195.4,-22208.947,-22195.672,-22172.277,-22183.557,-22233.777,-22277.11,-22291.43,-22274.203,-22214.482,-22169.67,-22170.06,-22161.715,-22165.695,-22198.752,-22220.45,-22224.877,-22215.574,-22223.102,-22241.422,-22216.557,-22186.822,-22199.955,-22214.766,-22205.186,-22210.99,-22237.182,-22212.664,-22156.754,-22149.676,-22164.52,-22180.682,-22189.691,-22167.504,-22176.37,-22233.666,-22252.904,-22224.793,-22219.846,-22221.217,-22208.465,-22213.59,-22208.303,-22212.326,-22249.316,-22258.82,-22241.324,-22224.031,-22196.994,-22180.984,-22197.709,-22226.361,-22244.158,-22239.238,-22237.96,-22246.193,-22215.357,-22183.717,-22229.85,-22284.215,-22241.371,-22214.643,-22257.32,-22222.322,-22140.2,-22126.012,-22193.754,-22248.902,-22222.662,-22202.486,-22196.143,-22205.252,-22234.336,-22229.404,-22236.217,-22235.512,-22212.383,-22203.22,-22187.053,-22209.525,-22252.812,-22245.129,-22207.367,-22181.95,-22198.357,-22219.059,-22215.43,-22226.89,-22249.395,-22261.701,-22269.719,-22276.209,-22261.193,-22219.693,-22206.406,-22231.885,-22262.104,-22310.678,-22343.654,-22304.936,-22232.625,-22191.586,-22205.305,-22240.035,-22252.0,-22241.773,-22228.906,-22235.002,-22249.674,-22242.805,-22224.041,-22222.379,-22221.754,-22183.146,-22158.166,-22196.99,-22240.78,-22260.576,-22249.814,-22217.45,-22217.23,-22221.312,-22210.395,-22216.574,-22222.2,-22223.19,-22231.277,-22242.033,-22245.066,-22241.562,-22241.053,-22234.56,-22227.04,-22226.086,-22228.55,-22222.588,-22205.775,-22201.373,-22216.494,-22240.799,-22252.744,-22268.068,-22321.422,-22398.86,-22407.236,-22283.494,-22191.35,-22200.316,-22198.562,-22193.21,-22201.834,-22232.836,-22234.031,-22196.875,-22222.287,-22251.615,-22231.117,-22191.275,-22183.225,-22210.002,-22198.984,-22201.178,-22247.568,-22287.402,-22292.928,-22252.705,-22207.645,-22211.098,-22238.246,-22227.262,-22210.648,-22216.309,-22255.076,-22283.654,-22228.576,-22200.162,-22220.324,-22221.637,-22230.322,-22240.348,-22276.59,-22333.152,-22358.113,-22329.44,-22269.94,-22227.676,-22187.396,-22162.932,-22167.111,-22200.139,-22259.986,-22263.037,-22247.012,-22270.23,-22278.496,-22268.527,-22215.55,-22158.205,-22183.027,-22222.34,-22196.709,-22165.848,-22190.31,-22196.904,-22187.197,-22209.77,-22217.396,-22222.342,-22232.611,-22248.795,-22267.51,-22263.398,-22265.129,-22263.34,-22270.33,-22282.959,-22266.014,-22238.975,-22192.346,-22170.139,-22198.133,-22227.424,-22274.98,-22340.488,-22357.36,-22289.158,-22206.201,-22179.229,-22200.717,-22251.986,-22275.229,-22251.06,-22244.352,-22252.701,-22236.791,-22220.996,-22213.633,-22209.576,-22213.227,-22213.879,-22219.227,-22208.01,-22178.922,-22182.797,-22220.363,-22249.105,-22242.71,-22223.572,-22229.709,-22273.85,-22289.96,-22244.229,-22235.727,-22243.385,-22225.557,-22279.803,-22341.19,-22297.043,-22237.592,-22262.658,-22317.08,-22303.988,-22238.354,-22170.736,-22159.402,-22199.307,-22186.926,-22171.768,-22205.053,-22234.871,-22262.057,-22259.432,-22254.607,-22266.451,-22262.879,-22281.447,-22291.176,-22251.51,-22194.348,-22165.523,-22183.398,-22203.096,-22220.197,-22249.064,-22259.979,-22230.764,-22205.36,-22263.959,-22339.537,-22323.133,-22299.201,-22332.768,-22350.268,-22326.361,-22276.08,-22240.46,-22234.521,-22217.07,-22210.86,-22202.508,-22176.885,-22174.367,-22191.426,-22222.361,-22228.064,-22228.809,-22265.04,-22292.582,-22319.152,-22297.46,-22229.545,-22218.086,-22228.795,-22228.947,-22217.395,-22206.523,-22228.678,-22235.973,-22232.836,-22234.734,-22232.668,-22254.732,-22261.527,-22243.25,-22242.814,-22244.754,-22228.297,-22216.8,-22246.45,-22288.584,-22300.959,-22286.59,-22270.023,-22296.53,-22314.717,-22255.713,-22224.33,-22258.525,-22222.123,-22160.264,-22218.11,-22282.148,-22257.518,-22236.852,-22233.111,-22243.527,-22262.188,-22240.479,-22218.93,-22212.125,-22201.523,-22209.371,-22220.416,-22230.008,-22246.955,-22267.098,-22317.207,-22376.902,-22361.102,-22280.842,-22223.705,-22229.604,-22275.434,-22286.512,-22272.31,-22268.148,-22249.438,-22255.648,-22275.27,-22282.174,-22273.87,-22226.326,-22218.508,-22214.547,-22175.65,-22194.389,-22208.463,-22214.791,-22250.611,-22264.275,-22267.129,-22239.898,-22225.22,-22261.18,-22277.475,-22265.504,-22239.328,-22222.092,-22222.068,-22223.201,-22228.129,-22214.322,-22202.31,-22230.502,-22261.236,-22261.674,-22275.105,-22319.66,-22348.129,-22346.66,-22309.3,-22265.908,-22266.127,-22256.734,-22229.37,-22222.326,-22209.162,-22212.383,-22233.775,-22231.947,-22219.467,-22208.303,-22207.69,-22213.598,-22227.791,-22250.383,-22261.16,-22259.467,-22241.182,-22272.672,-22344.514,-22368.836,-22382.492,-22348.182,-22252.56,-22175.059,-22150.1,-22205.559,-22244.51,-22246.668,-22263.922,-22240.783,-22232.303,-22248.299,-22241.354,-22244.406,-22247.068,-22251.232,-22246.705,-22232.445,-22234.674,-22239.822,-22234.828,-22216.613,-22242.271,-22305.0,-22306.213,-22263.516,-22245.602,-22247.54,-22237.656,-22234.523,-22252.521,-22268.422,-22270.992,-22239.148,-22214.578,-22236.344,-22247.947,-22250.27,-22259.69,-22255.748,-22254.193,-22263.385,-22293.998,-22341.512,-22341.635,-22271.531,-22215.516,-22219.748,-22218.658,-22199.195,-22229.531,-22309.416,-22323.77,-22267.174,-22271.408,-22281.494,-22250.416,-22245.936,-22216.217,-22197.633,-22210.22,-22198.21,-22232.475,-22271.113,-22261.713,-22275.93,-22308.398,-22309.197,-22266.516,-22240.152,-22246.129,-22249.816,-22254.756,-22248.076,-22261.453,-22285.326,-22293.068,-22337.938,-22356.387,-22277.61,-22198.396,-22194.746,-22220.502,-22264.227,-22313.113,-22288.754,-22242.305,-22257.7,-22291.854,-22280.836,-22248.559,-22247.479,-22262.82,-22273.748,-22250.07,-22214.648,-22225.818,-22245.133,-22246.623,-22253.984,-22263.63,-22254.982,-22243.191,-22252.521,-22274.102,-22308.29,-22342.059,-22342.596,-22305.352,-22247.924,-22219.432,-22245.422,-22264.127,-22256.746,-22250.904,-22242.682,-22235.666,-22231.182,-22260.842,-22296.377,-22292.086,-22312.43,-22323.525,-22260.646,-22211.629,-22231.377,-22248.338,-22268.934,-22316.97,-22292.06,-22246.059,-22267.598,-22295.654,-22294.31,-22262.34,-22252.37,-22256.879,-22239.508,-22241.627,-22249.588,-22254.225,-22254.79,-22243.363,-22249.271,-22280.197,-22313.2,-22321.402,-22322.803,-22344.117,-22362.133,-22342.205,-22296.793,-22257.37,-22231.564,-22228.242,-22224.633,-22208.164,-22209.756,-22234.008,-22248.947,-22236.389,-22233.217,-22227.332,-22207.041,-22225.082,-22249.77,-22259.912,-22265.383,-22247.781,-22248.475,-22259.887,-22250.357,-22257.389,-22274.629,-22289.943,-22321.705,-22359.846,-22388.684,-22360.355,-22274.875,-22240.33,-22257.21,-22251.52,-22232.795,-22221.17,-22241.783,-22271.535,-22253.848,-22221.639,-22231.455,-22264.752,-22278.697,-22287.344,-22272.545,-22237.365,-22232.527,-22241.41,-22263.307,-22285.707,-22304.646,-22303.783,-22251.75,-22239.793,-22268.154,-22267.188,-22267.68,-22270.324,-22253.592,-22230.82,-22218.744,-22235.598,-22307.748,-22369.39,-22329.164,-22266.234,-22232.11,-22190.027,-22202.498,-22247.732,-22249.555,-22257.99,-22272.111,-22271.334,-22268.863,-22254.883,-22254.062,-22268.865,-22285.754,-22278.018,-22249.17,-22277.514,-22318.39,-22269.018,-22220.715,-22290.285,-22343.732,-22283.287,-22256.871,-22288.582,-22271.676,-22237.402,-22242.697,-22247.256,-22238.234,-22242.535,-22245.135,-22245.992,-22250.809,-22258.064,-22261.582,-22245.025,-22224.232,-22221.498,-22246.422,-22263.93,-22258.19,-22266.377,-22266.373,-22251.906,-22270.467,-22306.201,-22314.135,-22315.13,-22318.861,-22284.104,-22239.799,-22242.758,-22273.805,-22283.002,-22266.54,-22254.27,-22249.043,-22250.69,-22252.6,-22248.518,-22253.02,-22255.145,-22248.64,-22248.326,-22274.244,-22304.719,-22285.465,-22246.785,-22242.197,-22297.701,-22365.893,-22341.953,-22282.947,-22252.693,-22220.115,-22223.682,-22256.773,-22272.95,-22263.463,-22242.393,-22246.303,-22254.035,-22255.71,-22279.896,-22299.504,-22293.281,-22284.54,-22285.76,-22281.223,-22267.086,-22263.447,-22263.219,-22254.871,-22258.186,-22270.727,-22274.174,-22268.832,-22261.945,-22268.664,-22285.121,-22285.025,-22262.016,-22239.709,-22246.152,-22272.383,-22287.057,-22281.58,-22277.531,-22291.95,-22290.443,-22263.941,-22257.492,-22242.28,-22215.785,-22272.078,-22353.727,-22345.48,-22310.219,-22301.053,-22289.797,-22282.613,-22295.756,-22305.857,-22292.348,-22287.441,-22272.893,-22250.578,-22277.531,-22298.447,-22287.096,-22280.736,-22287.057,-22308.035,-22312.965,-22299.465,-22275.184,-22259.49,-22288.357,-22325.184,-22325.719,-22303.855,-22284.5,-22274.05,-22291.834,-22318.488,-22307.885,-22281.883,-22269.244,-22269.178,-22276.941,-22283.148,-22268.637,-22252.338,-22257.906,-22258.025,-22256.521,-22256.752,-22266.852,-22290.96,-22293.188,-22285.71,-22280.057,-22287.658,-22318.385,-22345.732,-22343.014,-22300.516,-22282.16,-22297.846,-22288.021,-22289.8,-22325.88,-22345.215,-22331.928,-22298.756,-22280.596,-22307.379,-22332.357,-22313.8,-22285.773,-22301.586,-22333.104,-22319.957,-22302.11,-22313.629,-22329.674,-22333.639,-22334.135,-22327.979,-22303.158,-22304.186,-22333.611,-22364.768,-22388.678,-22379.584,-22349.99,-22330.303,-22346.143,-22354.379,-22312.635,-22278.188,-22280.719,-22304.566,-22317.172,-22318.414,-22328.932,-22309.34,-22266.066,-22263.102,-22308.926,-22344.62,-22316.44,-22266.969,-22281.719,-22311.986,-22280.734,-22268.73,-22286.676,-22270.121,-22270.602,-22290.66,-22292.72,-22292.021,-22292.621,-22296.47,-22288.834,-22273.863,-22276.52,-22278.855,-22271.932,-22265.82,-22263.594,-22267.887,-22269.568,-22268.871,-22268.348,-22272.71,-22296.154,-22317.707,-22321.836,-22322.436,-22318.783,-22301.715,-22274.725,-22267.768,-22300.47,-22339.4,-22329.408,-22303.67,-22311.121,-22299.467,-22286.395,-22303.639,-22306.328,-22295.4,-22282.482,-22284.176,-22281.865,-22254.273,-22249.285,-22272.535,-22290.951,-22286.389,-22278.885,-22285.412,-22276.338,-22254.117,-22247.742,-22278.97,-22312.045,-22289.752,-22290.252,-22373.61,-22428.28,-22355.303,-22274.34,-22337.19,-22378.842
-22304.037,-22267.104,-22264.79,-22266.629,-22268.873,-22261.41,-22260.385,-22237.771,-22248.03,-22275.691,-22258.578,-22239.705,-22239.57,-22260.266,-22260.793,-22246.305,-22251.95,-22254.598,-22257.635,-22248.537,-22260.773,-22304.037,-22305.719,-22298.537,-22312.424,-22303.928,-22289.875,-22294.887,-22291.768,-22284.219,-22292.553,-22291.23,-22278.832,-22285.4,-22323.365,-22383.771,-22414.766,-22366.691,-22291.49,-22289.846,-22335.227,-22323.828,-22260.607,-22235.402,-22275.236,-22311.016,-22311.172,-22309.465,-22324.86,-22348.752,-22352.043,-22328.543,-22288.996,-22261.523,-22261.88,-22259.338,-22248.658,-22233.234,-22237.271,-22271.861,-22289.447,-22291.367,-22294.064,-22289.025,-22288.963,-22309.383,-22326.865,-22302.666,-22278.24,-22294.137,-22302.078,-22299.762,-22316.459,-22323.275,-22332.496,-22363.219,-22367.95,-22343.201,-22306.809,-22274.05,-22282.834,-22303.316,-22305.938,-22296.4,-22299.072,-22349.326,-22375.904,-22371.457,-22380.13,-22339.775,-22287.838,-22269.945,-22283.469,-22342.996,-22357.36,-22314.23,-22288.76,-22287.307,-22298.812,-22296.574,-22294.398,-22295.031,-22281.703,-22287.342,-22305.803,-22326.797,-22345.412,-22359.758,-22371.076,-22333.85,-22278.473,-22256.15,-22258.447,-22294.322,-22325.512,-22316.877,-22309.527,-22322.92,-22324.52,-22302.14,-22304.693,-22348.896,-22367.385,-22346.473,-22340.621,-22335.139,-22315.744,-22309.355,-22307.742,-22313.281,-22328.297,-22340.203,-22341.848,-22323.744,-22293.564,-22284.152,-22311.477,-22326.047,-22306.822,-22294.664,-22300.213,-22307.514,-22326.258,-22350.664,-22340.232,-22323.012,-22321.35,-22313.174,-22309.26,-22307.078,-22302.8,-22302.717,-22319.031,-22330.805,-22323.143,-22326.283,-22320.05,-22311.715,-22325.031,-22337.922,-22341.531,-22327.375,-22317.48,-22330.74,-22338.152,-22326.203,-22316.223,-22328.73,-22348.03,-22375.846,-22426.148,-22440.682,-22398.871,-22333.47,-22272.912,-22278.791,-22305.32,-22307.781,-22321.398,-22319.457,-22328.244,-22344.941,-22336.357,-22330.025,-22324.148,-22324.855,-22320.777,-22314.62,-22310.303,-22298.953,-22304.506,-22311.574,-22312.85,-22312.293,-22310.494,-22316.074,-22328.482,-22345.338,-22355.84,-22363.262,-22357.535,-22348.572,-22348.688,-22345.809,-22346.62,-22330.893,-22312.318,-22311.516,-22301.098,-22283.816,-22290.932,-22342.291,-22369.23,-22326.717,-22300.846,-22314.078,-22330.238,-22367.436,-22397.78,-22392.854,-22383.885,-22381.1,-22389.771,-22393.613,-22374.352,-22326.287,-22287.734,-22324.05,-22358.553,-22354.305,-22353.572,-22342.816,-22319.645,-22287.605,-22317.26,-22363.326,-22342.65,-22335.947,-22328.291,-22318.021,-22336.844,-22342.203,-22349.26,-22351.611,-22344.37,-22351.602,-22352.4,-22337.22,-22339.553,-22373.506,-22404.885,-22443.43,-22484.363,-22449.303,-22350.338,-22288.621,-22315.156,-22368.275,-22383.156,-22374.879,-22339.787,-22321.176,-22354.666,-22384.732,-22389.922,-22364.703,-22350.387,-22359.309,-22355.867,-22363.438,-22353.14,-22330.645,-22334.887,-22342.527,-22348.943,-22335.414,-22316.174,-22328.611,-22354.035,-22372.229,-22377.875,-22370.88,-22352.914,-22337.943,-22321.98,-22300.807,-22305.621,-22317.639,-22328.871,-22347.979,-22347.412,-22366.912,-22402.438,-22398.652,-22385.117,-22388.53,-22395.178,-22387.066,-22400.05,-22442.041,-22436.834,-22388.162,-22331.66,-22301.744,-22338.672,-22375.197,-22359.004,-22328.684,-22320.535,-22331.967,-22325.865,-22320.674,-22347.45,-22353.668,-22333.281,-22327.371,-22322.209,-22321.674,-22327.441,-22325.46,-22339.166,-22350.195,-22346.156,-22353.447,-22348.377,-22336.055,-22364.076,-22412.947,-22427.79,-22416.168,-22377.777,-22315.164,-22307.809,-22360.049,-22424.365,-22443.04,-22408.21,-22402.361,-22391.543,-22365.201,-22346.207,-22322.521,-22329.887,-22339.264,-22379.654,-22413.53,-22363.305,-22347.85,-22364.95,-22347.994,-22334.555,-22329.629,-22328.424,-22330.814,-22335.959,-22332.723,-22332.62,-22339.963,-22339.56,-22354.057,-22372.723,-22378.803,-22381.514,-22385.85,-22405.252,-22423.076,-22392.781,-22351.822,-22383.094,-22402.365,-22368.523,-22383.508,-22385.652,-22338.59,-22322.86,-22335.746,-22354.65,-22335.947,-22302.889,-22319.615,-22331.459,-22331.572,-22350.594,-22359.941,-22361.98,-22359.559,-22364.525,-22391.355,-22403.271,-22389.883,-22355.635,-22316.611,-22336.748,-22369.188,-22356.914,-22361.615,-22352.959,-22342.727,-22391.195,-22408.973,-22389.162,-22398.762,-22425.975,-22421.506,-22379.836,-22380.625,-22384.434,-22328.684,-22311.115,-22342.02,-22356.045,-22357.71,-22346.072,-22343.014,-22355.295,-22351.898,-22356.895,-22386.008,-22414.9,-22413.71,-22396.297,-22402.176,-22392.084,-22349.562,-22323.225,-22326.713,-22334.0,-22332.291,-22345.408,-22349.477,-22350.727,-22389.217,-22386.389,-22347.127,-22342.402,-22336.508,-22350.682,-22388.734,-22390.285,-22349.41,-22309.09,-22328.521,-22351.107,-22329.99,-22329.12,-22353.45,-22374.63,-22381.762,-22385.197,-22376.375,-22343.627,-22324.861,-22330.89,-22345.523,-22344.598,-22346.508,-22357.738,-22343.262,-22336.21,-22339.318,-22351.055,-22381.537,-22385.354,-22365.857,-22341.25,-22331.283,-22352.957,-22374.525,-22378.172,-22366.387,-22355.924,-22355.082,-22352.18,-22355.547,-22364.873,-22363.809,-22351.176,-22355.322,-22397.984,-22410.5,-22353.795,-22338.936,-22405.848,-22429.504,-22369.234,-22342.547,-22390.674,-22426.096,-22405.705,-22362.242,-22368.363,-22408.857,-22383.062,-22344.375,-22349.979,-22362.732,-22382.768,-22362.45,-22321.004,-22310.98,-22302.627,-22304.818,-22315.617,-22334.482,-22336.277,-22329.018,-22363.709,-22368.564,-22370.023,-22406.04,-22407.67,-22420.305,-22443.406,-22434.994,-22398.406,-22331.582,-22306.732,-22338.07,-22350.736,-22342.588,-22338.422,-22341.29,-22357.387,-22355.473,-22335.488,-22347.5,-22365.885,-22375.586,-22403.604,-22424.703,-22429.465,-22429.78,-22400.889,-22353.355,-22347.44,-22352.773,-22350.65,-22369.97,-22353.643,-22340.164,-22354.146,-22347.113,-22362.996,-22361.7,-22331.04,-22330.348,-22345.836,-22356.816,-22357.447,-22373.168,-22381.787,-22371.55,-22364.283,-22345.932,-22338.566,-22353.375,-22387.008,-22397.643,-22381.21,-22383.828,-22364.928,-22340.031,-22333.773,-22339.037,-22361.223,-22352.7,-22333.783,-22324.256,-22310.568,-22328.56,-22367.64,-22402.557,-22459.504,-22529.896,-22506.28,-22397.193,-22359.355,-22396.115,-22417.693,-22395.143,-22361.924,-22362.664,-22395.422,-22438.246,-22399.986,-22334.31,-22358.691,-22342.05,-22295.46,-22318.602,-22330.932,-22336.816,-22340.695,-22329.13,-22335.953,-22331.734,-22342.28,-22380.523,-22405.04,-22433.941,-22438.871,-22412.494,-22409.588,-22406.516,-22374.85,-22328.592,-22307.178,-22333.09,-22342.072,-22331.795,-22367.414,-22408.803,-22389.826,-22344.293,-22326.3,-22320.191,-22316.11,-22320.016,-22326.879,-22344.19,-22345.908,-22342.63,-22361.496,-22364.371,-22350.28,-22342.402,-22351.525,-22380.424,-22394.594,-22381.508,-22373.807,-22377.25,-22352.367,-22315.379,-22324.686,-22353.482,-22359.494,-22358.516,-22360.332,-22382.29,-22422.787,-22425.229,-22392.207,-22372.766,-22362.41,-22351.53,-22352.736,-22368.879,-22386.186,-22374.084,-22339.207,-22330.82,-22338.832,-22337.723,-22344.488,-22348.979,-22351.37,-22354.102,-22349.086,-22350.678,-22350.46,-22357.623,-22369.795,-22366.51,-22361.082,-22352.703,-22349.875,-22359.918,-22381.979,-22408.498,-22407.863,-22368.648,-22320.127,-22332.877,-22415.584,-22458.057,-22400.135,-22357.45,-22374.383,-22350.324,-22320.467,-22323.553,-22359.162,-22406.06,-22370.635,-22338.742,-22344.475,-22339.482,-22353.498,-22337.729,-22334.658,-22358.307,-22367.877,-22368.164,-22332.188,-22320.986,-22329.309,-22334.318,-22356.283,-22364.658,-22371.47,-22361.156,-22350.059,-22347.709,-22339.688,-22350.246,-22344.916,-22335.994,-22339.244,-22341.26,-22358.783,-22369.2,-22364.266,-22365.566,-22384.898,-22371.627,-22312.275,-22311.926,-22359.586,-22363.475,-22354.031,-22357.287,-22345.89,-22345.281,-22340.084,-22299.0,-22289.41,-22318.514,-22335.441,-22332.244,-22321.197,-22328.434,-22336.385,-22344.295,-22357.186,-22353.502,-22352.629,-22348.033,-22343.08,-22356.652,-22382.148,-22389.549,-22341.996,-22324.455,-22370.299,-22356.193,-22313.49,-22347.693,-22372.912,-22352.543,-22354.035,-22342.799,-22330.137,-22344.014,-22357.76,-22377.11,-22372.035,-22352.73,-22344.846,-22339.9,-22356.32,-22373.508,-22370.672,-22356.227,-22356.465,-22373.84,-22364.922,-22354.877,-22368.45,-22368.596,-22369.277,-22374.414,-22354.617,-22341.855,-22336.65,-22334.164,-22370.691,-22407.629,-22408.291,-22372.393,-22335.607,-22349.867,-22372.832,-22361.059,-22339.084,-22342.96,-22346.75,-22333.467,-22345.096,-22351.844,-22346.363,-22347.877,-22320.99,-22301.336,-22321.547,-22324.783,-22318.213,-22331.033,-22308.627,-22290.77,-22341.334,-22375.58,-22343.713,-22323.184,-22355.617,-22368.305,-22329.596,-22288.188,-22284.426,-22300.012,-22290.992,-22295.186,-22318.004,-22309.385,-22277.34,-22268.418,-22298.672,-22307.037,-22286.379,-22287.27,-22321.172,-22357.049,-22328.928,-22277.043,-22276.86,-22303.516,-22335.494,-22328.379,-22270.916,-22252.094,-22254.33,-22229.074,-22234.2,-22264.615,-22284.854,-22283.639,-22256.123,-22236.66,-22215.04,-22202.611,-22228.586,-22251.365,-22247.398,-22231.393,-22225.383,-22220.742,-22227.168,-22256.658,-22272.812,-22272.6,-22249.059,-22218.635,-22207.209,-22205.436,-22207.902,-22188.508,-22193.336,-22229.555,-22229.348,-22219.61,-22210.994,-22235.883,-22306.053,-22297.934,-22206.172,-22163.967,-22210.32,-22252.727,-22254.027,-22286.05,-22331.027,-22316.488,-22262.305,-22220.955,-22199.69,-22193.578,-22203.527,-22208.713,-22208.955,-22210.076,-22196.658,-22157.729,-22115.93,-22126.678,-22182.08,-22233.828,-22233.174,-22181.367,-22168.547,-22204.967,-22242.346,-22262.414,-22246.95,-22217.14,-22221.182,-22285.79,-22344.71,-22305.562,-22251.197,-22304.379,-22390.33,-22385.281,-22309.47,-22266.084,-22245.773,-22189.281,-22166.217,-22185.965,-22196.574,-22208.621,-22224.385,-22260.453,-22289.768,-22262.033,-22213.602,-22221.232,-22258.076,-22251.074,-22263.111,-22312.955,-22321.848,-22287.94,-22240.969,-22217.09,-22241.445,-22295.438,-22331.693,-22295.209,-22221.752,-22204.947,-22238.703,-22246.65,-22231.225,-22230.111,-22225.697,-22237.371,-22277.691,-22296.951,-22269.94,-22231.201,-22232.303,-22228.291,-22221.568,-22266.996,-22306.455,-22321.168,-22306.3,-22267.33,-22264.887,-22304.031,-22325.383,-22323.996,-22397.346,-22407.703,-22282.893,-22263.582,-22272.611,-22211.023,-22200.072,-22209.059,-22226.543,-22267.17,-22298.164,-22304.125,-22303.379,-22306.967,-22279.713,-22283.967,-22326.6,-22306.936,-22249.86,-22226.928,-22259.79,-22304.74,-22316.766,-22302.168,-22266.139,-22252.049,-22254.52,-22245.652,-22272.68,-22321.484,-22372.502,-22395.377,-22323.713,-22267.637,-22298.244,-22297.467,-22269.799,-22279.186,-22286.658,-22284.988,-22296.6,-22302.398,-22303.127,-22307.3,-22287.447,-22271.766,-22284.172,-22283.57,-22300.86,-22326.041,-22290.957,-22263.033,-22286.408,-22301.725,-22306.562,-22319.164,-22325.322,-22320.836,-22321.912,-22340.445,-22352.732,-22367.324,-22402.564,-22392.277,-22350.361,-22367.59,-22381.238,-22322.38,-22278.598,-22297.234,-22321.04,-22307.174,-22286.527,-22321.889,-22352.9,-22334.021,-22336.053,-22328.12,-22314.24,-22336.523,-22327.268,-22298.852,-22292.033,-22301.945,-22321.822,-22325.467,-22318.146,-22295.637,-22281.473,-22309.84,-22325.81,-22313.516,-22310.174,-22319.41,-22330.652,-22339.08,-22342.795,-22333.42,-22352.766,-22402.355,-22422.867,-22436.88,-22428.857,-22375.105,-22331.307,-22325.63,-22345.035,-22337.908,-22319.496,-22316.604,-22319.578,-22371.508,-22428.768,-22428.926,-22371.418,-22280.691,-22250.344,-22297.014,-22338.139,-22354.93,-22361.352,-22344.371,-22336.65,-22336.424,-22316.549,-22315.41,-22318.404,-22328.049,-22360.787,-22367.26,-22358.117,-22359.29,-22354.32,-22347.852,-22345.264,-22335.283,-22335.229,-22338.12,-22321.96,-22330.762,-22368.676,-22392.57,-22419.293,-22468.475,-22510.467,-22515.031,-22432.02,-22289.84,-22241.79,-22288.283,-22321.975,-22322.93,-22335.387,-22386.055,-22382.795,-22331.65,-22340.764,-22373.797,-22358.318,-22329.375,-22354.01,-22357.588,-22325.229,-22360.87,-22396.727,-22383.135,-22369.701,-22352.074,-22330.486,-22322.986,-22337.477,-22354.695,-22364.371,-22367.316,-22370.652,-22376.006,-22363.246,-22351.92,-22351.258,-22354.156,-22348.826,-22316.225,-22303.549,-22337.451,-22363.877,-22367.342,-22371.04,-22365.023,-22388.77,-22431.893,-22409.76,-22372.662,-22397.664,-22443.988,-22405.309,-22357.611,-22393.219,-22367.186,-22314.188,-22309.307,-22322.818,-22366.885,-22349.094,-22312.697,-22319.303,-22324.258,-22346.705,-22333.236,-22300.883,-22327.758,-22375.016,-22394.264,-22386.03,-22369.79,-22362.633,-22369.06,-22364.373,-22369.521,-22415.81,-22434.758,-22402.332,-22380.56,-22388.219,-22427.793,-22434.512,-22342.123,-22287.344,-22324.049,-22352.516,-22377.648,-22391.727,-22402.766,-22437.56,-22409.938,-22345.02,-22372.834,-22402.938,-22350.502,-22340.623,-22355.396,-22341.05,-22345.742,-22322.062,-22279.844,-22272.95,-22278.129,-22304.469,-22339.646
-22343.201,-22353.977,-22374.453,-22374.156,-22394.318,-22405.7,-22363.342,-22321.475,-22313.38,-22328.178,-22358.57,-22372.71,-22339.314,-22326.814,-22360.064,-22372.463,-22383.496,-22398.258,-22413.223,-22456.293,-22447.102,-22358.738,-22333.666,-22392.031,-22386.803,-22332.12,-22321.07,-22342.541,-22369.146,-22358.27,-22324.104,-22311.984,-22314.072,-22321.645,-22328.934,-22334.54,-22330.87,-22337.992,-22379.467,-22430.01,-22453.299,-22433.148,-22419.559,-22433.65,-22401.605,-22334.836,-22320.902,-22337.031,-22346.684,-22359.264,-22361.455,-22381.453,-22420.51,-22443.586,-22447.06,-22417.814,-22358.387,-22303.146,-22307.668,-22338.45,-22326.262,-22349.777,-22421.168,-22427.533,-22356.514,-22289.516,-22313.643,-22367.6,-22348.146,-22336.723,-22376.385,-22425.162,-22458.865,-22449.18,-22423.22,-22357.258,-22282.791,-22300.152,-22319.61,-22306.422,-22333.92,-22364.363,-22395.684,-22445.408,-22440.21,-22381.037,-22380.768,-22417.523,-22397.81,-22364.393,-22328.246,-22292.932,-22304.748,-22316.686,-22311.129,-22300.043,-22301.037,-22335.74,-22350.945,-22370.762,-22404.904,-22384.639,-22355.223,-22338.785,-22308.318,-22304.338,-22321.922,-22347.594,-22404.012,-22436.379,-22407.916,-22354.268,-22316.443,-22368.982,-22460.48,-22466.166,-22459.049,-22490.033,-22473.314,-22367.314,-22252.623,-22279.236,-22351.113,-22350.518,-22356.256,-22335.22,-22317.492,-22327.688,-22330.766,-22374.43,-22395.322,-22378.553,-22355.672,-22342.064,-22343.873,-22322.36,-22300.184,-22274.922,-22315.336,-22391.129,-22384.564,-22392.773,-22412.615,-22410.775,-22421.062,-22411.074,-22380.232,-22317.525,-22298.887,-22333.799,-22348.625,-22389.504,-22382.088,-22312.768,-22299.871,-22312.924,-22334.258,-22364.828,-22366.021,-22348.105,-22334.148,-22330.82,-22349.92,-22405.078,-22427.252,-22373.89,-22325.207,-22318.062,-22316.465,-22297.764,-22303.89,-22344.934,-22353.693,-22358.133,-22381.498,-22378.875,-22367.252,-22364.008,-22378.957,-22378.61,-22346.29,-22329.295,-22306.268,-22299.943,-22328.064,-22352.742,-22392.104,-22429.207,-22418.576,-22378.98,-22399.87,-22428.771,-22404.617,-22438.29,-22445.162,-22378.732,-22360.256,-22346.475,-22330.535,-22331.164,-22329.135,-22359.91,-22373.732,-22331.521,-22303.828,-22306.803,-22310.586,-22333.838,-22355.514,-22368.502,-22387.99,-22366.168,-22334.76,-22328.867,-22330.771,-22342.238,-22342.38,-22338.38,-22336.783,-22338.771,-22334.791,-22328.783,-22344.982,-22344.627,-22342.906,-22356.541,-22353.545,-22338.848,-22337.791,-22387.69,-22438.355,-22446.02,-22429.84,-22380.744,-22326.53,-22292.352,-22300.852,-22338.938,-22364.285,-22388.635,-22365.518,-22328.559,-22357.24,-22376.14,-22361.174,-22334.475,-22306.705,-22300.451,-22307.363,-22323.783,-22310.797,-22305.633,-22345.861,-22346.023,-22339.893,-22381.518,-22398.8,-22392.666,-22405.805,-22402.688,-22374.346,-22347.273,-22333.402,-22334.668,-22323.32,-22331.316,-22358.492,-22328.76,-22312.664,-22363.867,-22381.867,-22349.928,-22347.938,-22403.352,-22448.068,-22409.941,-22352.918,-22348.652,-22335.73,-22295.697,-22289.582,-22323.742,-22362.838,-22382.361,-22408.64,-22451.295,-22440.668,-22379.475,-22349.59,-22330.072,-22285.506,-22288.73,-22320.197,-22318.72,-22355.81,-22405.447,-22383.252,-22333.787,-22326.66,-22365.64,-22382.701,-22385.848,-22386.03,-22330.004,-22297.09,-22351.758,-22406.072,-22391.318,-22363.203,-22372.879,-22390.566,-22398.645,-22378.68,-22341.52,-22311.008,-22298.166,-22317.787,-22326.701,-22323.89,-22333.676,-22350.57,-22374.846,-22364.678,-22341.86,-22351.236,-22352.938,-22334.652,-22322.215,-22327.137,-22335.955,-22330.305,-22321.168,-22324.646,-22335.947,-22357.96,-22386.752,-22391.436,-22368.738,-22340.408,-22341.98,-22368.242,-22376.018,-22388.414,-22428.244,-22506.934,-22561.133,-22454.262,-22339.322,-22403.904,-22451.82,-22379.31,-22309.137,-22292.273,-22328.41,-22337.293,-22317.914,-22326.8,-22341.826,-22387.871,-22393.447,-22344.965,-22341.938,-22357.912,-22376.494,-22363.982,-22339.154,-22351.525,-22328.209,-22296.625,-22328.666,-22391.16,-22409.113,-22383.336,-22365.938,-22362.488,-22409.693,-22432.908,-22377.902,-22344.225,-22335.068,-22384.43,-22444.68,-22384.797,-22308.314,-22299.66,-22312.484,-22323.16,-22326.123,-22329.988,-22345.328,-22365.656,-22368.094,-22351.639,-22332.02,-22325.453,-22338.012,-22343.174,-22336.371,-22345.592,-22352.678,-22341.553,-22336.295,-22333.023,-22334.025,-22336.465,-22328.15,-22324.18,-22332.992,-22353.262,-22363.312,-22371.002,-22383.121,-22374.502,-22371.355,-22387.973,-22403.822,-22387.432,-22357.742,-22378.666,-22396.049,-22369.836,-22360.072,-22368.512,-22363.156,-22356.73,-22381.424,-22404.719,-22397.14,-22411.084,-22421.398,-22382.71,-22359.729,-22353.178,-22336.125,-22344.465,-22347.773,-22337.9,-22346.42,-22357.223,-22358.023,-22333.73,-22322.879,-22333.75,-22315.158,-22309.797,-22329.62,-22351.26,-22357.678,-22322.957,-22342.486,-22420.742,-22424.61,-22381.938,-22367.773,-22388.873,-22422.658,-22403.043,-22344.652,-22316.186,-22338.621,-22377.047,-22391.283,-22392.432,-22364.656,-22328.854,-22323.018,-22335.445,-22371.13,-22382.066,-22360.814,-22339.76,-22314.889,-22325.469,-22363.402,-22406.998,-22422.896,-22376.775,-22352.184,-22352.414,-22344.924,-22370.229,-22382.994,-22369.262,-22367.97,-22370.896,-22368.31,-22356.941,-22346.11,-22331.193,-22326.834,-22343.219,-22342.709,-22342.184,-22357.988,-22385.645,-22462.11,-22529.45,-22476.357,-22367.447,-22317.424,-22297.713,-22298.547,-22343.002,-22372.605,-22364.926,-22352.324,-22350.232,-22354.14,-22355.703,-22356.49,-22352.658,-22349.068,-22349.459,-22346.42,-22334.316,-22332.102,-22368.215,-22402.598,-22401.885,-22410.963,-22442.46,-22456.402,-22449.77,-22442.006,-22423.229,-22389.73,-22357.56,-22342.584,-22344.287,-22341.2,-22341.803,-22347.336,-22328.975,-22330.244,-22370.39,-22367.629,-22336.727,-22335.229,-22328.12,-22329.775,-22347.299,-22345.742,-22354.818,-22368.668,-22366.521,-22358.525,-22361.77,-22386.846,-22413.6,-22438.188,-22415.568,-22386.488,-22416.574,-22399.207,-22375.387,-22402.809,-22404.225,-22415.377,-22408.232,-22390.05,-22445.75,-22469.303,-22414.0,-22364.918,-22318.799,-22290.934,-22324.123,-22358.41,-22364.842,-22364.65,-22353.236,-22364.043,-22365.514,-22339.516,-22342.332,-22349.723,-22359.928,-22363.67,-22342.26,-22342.424,-22350.912,-22364.148,-22385.521,-22386.502,-22398.012,-22425.553,-22438.238,-22434.197,-22407.924,-22370.654,-22357.0,-22352.16,-22322.242,-22312.182,-22334.71,-22324.176,-22310.555,-22343.762,-22372.418,-22363.264,-22363.016,-22386.867,-22396.01,-22410.605,-22425.574,-22417.451,-22394.92,-22349.873,-22356.389,-22425.178,-22488.537,-22539.828,-22527.307,-22430.297,-22341.611,-22335.098,-22338.508,-22330.592,-22372.676,-22381.115,-22333.648,-22314.727,-22343.2,-22355.375,-22328.23,-22342.643,-22370.611,-22378.918,-22375.129,-22333.213,-22315.457,-22333.055,-22354.908,-22383.414,-22419.74,-22488.287,-22517.67,-22436.857,-22344.201,-22333.072,-22381.92,-22440.955,-22459.729,-22443.533,-22440.344,-22437.053,-22432.295,-22437.77,-22417.47,-22387.98,-22363.63,-22322.703,-22318.31,-22337.098,-22329.26,-22329.855,-22337.18,-22366.865,-22392.26,-22374.135,-22382.154,-22392.725,-22374.963,-22365.951,-22357.773,-22365.455,-22392.975,-22418.787,-22418.004,-22390.094,-22381.81,-22389.621,-22382.066,-22366.719,-22367.732,-22374.992,-22379.2,-22397.545,-22400.574,-22381.533,-22380.861,-22394.889,-22385.805,-22365.541,-22380.139,-22431.662,-22492.363,-22498.533,-22431.15,-22363.258,-22337.107,-22330.84,-22332.658,-22353.71,-22380.504,-22407.066,-22409.887,-22383.75,-22375.33,-22374.047,-22369.31,-22361.787,-22350.445,-22360.137,-22369.826,-22356.877,-22357.152,-22389.572,-22398.324,-22386.258,-22404.305,-22392.9,-22360.178,-22395.348,-22442.807,-22443.63,-22440.17,-22439.107,-22417.61,-22384.648,-22348.447,-22319.059,-22319.723,-22325.633,-22327.62,-22346.643,-22350.232,-22342.135,-22339.004,-22342.166,-22352.646,-22343.6,-22344.963,-22358.457,-22360.643,-22378.797,-22412.105,-22419.46,-22361.27,-22337.754,-22408.844,-22451.152,-22462.266,-22462.633,-22385.73,-22314.975,-22326.18,-22339.887,-22342.64,-22373.047,-22400.977,-22395.307,-22387.016,-22409.451,-22403.178,-22353.63,-22327.174,-22344.38,-22376.057,-22358.934,-22324.459,-22339.986,-22387.459,-22408.732,-22372.393,-22354.041,-22364.633,-22381.756,-22413.473,-22413.723,-22398.615,-22363.438,-22350.217,-22398.611,-22415.734,-22401.922,-22377.666,-22349.443,-22337.875,-22336.744,-22350.287,-22350.84,-22349.166,-22356.068,-22355.637,-22351.191,-22346.38,-22357.031,-22358.797,-22354.041,-22363.814,-22361.744,-22354.336,-22354.428,-22366.715,-22387.676,-22394.875,-22377.68,-22348.707,-22351.299,-22371.658,-22363.617,-22349.629,-22347.525,-22350.066,-22359.96,-22361.484,-22347.508,-22358.197,-22402.586,-22416.584,-22402.021,-22417.604,-22418.564,-22392.605,-22417.883,-22464.152,-22443.23,-22346.098,-22292.28,-22352.787,-22393.988,-22375.59,-22367.709,-22367.725,-22371.799,-22375.72,-22385.502,-22380.777,-22368.314,-22396.434,-22407.234,-22365.406,-22339.086,-22362.398,-22376.057,-22360.584,-22354.72,-22353.904,-22367.69,-22377.297,-22379.795,-22389.338,-22382.803,-22385.867,-22397.307,-22402.566,-22386.69,-22347.125,-22334.262,-22357.814,-22392.129,-22403.723,-22417.107,-22463.195,-22490.33,-22456.209,-22393.734,-22380.459,-22413.422,-22429.06,-22397.059,-22359.467,-22360.799,-22365.623,-22365.3,-22357.326,-22359.225,-22379.365,-22378.41,-22382.695,-22382.525,-22375.803,-22378.305,-22367.941,-22368.053,-22371.482,-22377.92,-22389.564,-22393.117,-22399.008,-22397.771,-22396.07,-22390.506,-22384.96,-22385.021,-22383.875,-22392.602,-22394.656,-22401.332,-22404.717,-22379.555,-22374.99,-22406.195,-22439.578,-22452.875,-22426.59,-22362.104,-22318.604,-22331.0,-22350.432,-22379.113,-22449.545,-22510.951,-22503.566,-22447.795,-22402.795,-22388.143,-22382.121,-22362.984,-22336.676,-22322.574,-22334.135,-22371.186,-22405.45,-22411.54,-22400.99,-22382.926,-22382.88,-22406.324,-22405.84,-22415.904,-22421.926,-22384.0,-22384.998,-22402.611,-22394.215,-22390.36,-22392.846,-22398.135,-22383.734,-22373.99,-22370.29,-22351.719,-22357.45,-22376.957,-22389.322,-22391.068,-22381.03,-22372.559,-22363.11,-22368.215,-22376.389,-22370.457,-22375.41,-22383.736,-22389.781,-22400.46,-22408.723,-22416.379,-22412.701,-22401.834,-22396.477,-22388.984,-22385.285,-22381.088,-22377.064,-22384.57,-22407.535,-22467.383,-22506.54,-22482.6,-22459.09,-22425.506,-22386.05,-22381.697,-22399.291,-22430.258,-22426.86,-22381.088,-22342.912,-22334.324,-22341.975,-22341.096,-22352.76,-22367.258,-22370.484,-22370.543,-22354.902,-22342.934,-22345.127,-22373.223,-22422.193,-22445.71,-22412.951,-22345.262,-22359.83,-22458.033,-22474.291,-22416.037,-22387.4,-22386.002,-22410.975,-22416.25,-22400.348,-22431.96,-22430.133,-22382.682,-22367.986,-22380.809,-22418.871,-22437.717,-22434.258,-22444.916,-22452.648,-22443.834,-22405.234,-22375.547,-22376.402,-22377.164,-22381.979,-22391.758,-22392.203,-22372.03,-22364.625,-22388.227,-22386.46,-22380.355,-22411.508,-22415.615,-22380.625,-22371.713,-22400.426,-22456.213,-22499.99,-22457.709,-22377.098,-22351.502,-22382.121,-22409.395,-22380.203,-22380.652,-22427.383,-22439.07,-22472.191,-22486.39,-22418.861,-22373.318,-22385.73,-22396.176,-22380.268,-22362.818,-22356.877,-22364.504,-22378.625,-22389.074,-22398.637,-22406.479,-22432.494,-22450.45,-22425.49,-22393.547,-22378.328,-22388.361,-22386.773,-22355.1,-22364.184,-22383.836,-22374.564,-22363.62,-22331.766,-22347.15,-22418.6,-22451.072,-22457.77,-22419.006,-22344.422,-22323.672,-22327.945,-22341.611,-22387.4,-22426.94,-22463.938,-22470.715,-22420.094,-22381.182,-22385.463,-22405.002,-22381.72,-22346.455,-22346.982,-22338.828,-22363.055,-22378.297,-22342.062,-22343.713,-22349.342,-22349.447,-22326.174,-22290.861,-22379.19,-22492.152,-22482.768,-22397.59,-22337.213,-22343.36,-22351.43,-22344.898,-22337.34,-22336.318,-22343.717,-22331.525,-22330.605,-22342.545,-22352.201,-22359.877,-22346.855,-22336.496,-22333.824,-22334.963,-22345.53,-22371.799,-22407.062,-22410.584,-22396.402,-22380.705,-22367.504,-22369.303,-22366.865,-22367.215,-22354.762,-22338.502,-22369.025,-22395.121,-22389.18,-22378.66,-22354.127,-22346.195,-22352.785,-22339.783,-22334.285,-22337.66,-22340.006,-22348.87,-22351.625,-22350.412,-22347.93,-22340.734,-22340.557,-22347.01,-22349.809,-22343.867,-22335.184,-22335.494,-22336.402,-22340.287,-22351.084,-22352.84,-22358.916,-22382.191,-22402.988,-22392.05,-22354.969,-22348.281,-22388.648,-22404.756,-22358.809,-22333.924,-22364.992,-22375.406,-22344.06,-22334.67,-22368.457,-22377.26,-22354.332,-22344.432,-22337.826,-22340.572,-22349.105,-22341.578,-22332.156,-22339.81,-22357.492,-22355.492,-22339.69,-22329.63,-22318.576,-22340.545,-22388.682,-22392.01,-22376.5,-22375.217,-22361.68,-22340.725,-22326.453,-22346.826,-22384.82,-22390.887,-22388.16,-22386.021,-22369.334,-22352.607,-22344.2,-22353.8,-22370.646,-22372.78,-22374.762,-22369.783,-22359.139,-22383.367
