SampleData
0.0,-4513.646,-12552.96,-7340.0435,31.843483,-8107.622,-6463.7407,-2762.6592,-8559.955,-4451.023,-6053.559,-7664.151,-4702.586,-8220.174,-5782.65,-6760.1694,-7268.7935,-5457.0693,-7459.9106,-5378.16,-6412.3486,-5998.745,-5302.6973,-6331.7144,-4988.8022,-6111.299,-5475.1484,-5687.948,-6114.836,-5555.2324,-6458.237,-5958.8726,-6494.6353,-6503.127,-6390.391,-6772.606,-6301.458,-6596.8926,-6247.9233,-6153.0996,-6087.067,-5750.452,-5839.032,-5541.6387,-5644.233,-5587.527,-5575.839,-5759.626,-5762.6304,-6010.1636,-6065.457,-6240.9937,-6368.7363,-6403.542,-6527.7993,-6468.8066,-6495.0405,-6413.1777,-6300.2446,-6200.4785,-6033.076,-5951.6255,-5815.1704,-5739.084,-5693.273,-5676.8164,-5732.7314,-5770.442,-5877.3345,-5985.4565,-6089.2563,-6189.599,-6273.616,-6367.5137,-6398.4976,-6401.368,-6383.335,-6334.665,-6259.8525,-6164.595,-6077.4277,-5976.729,-5892.0444,-5826.8843,-5784.702,-5787.505,-5804.635,-5849.013,-5910.428,-5983.8174,-6087.6294,-6174.6167,-6241.1216,-6311.065,-6347.3535,-6327.539,-6289.623,-6252.3696,-6197.3896,-6136.9614,-6062.0615,-5982.4253,-5937.267,-5891.4146,-5851.9033,-5848.0527,-5855.6377,-5883.1353,-5932.6235,-5992.466,-6061.8,-6131.6787,-6189.111,-6231.2017,-6261.217,-6260.5825,-6225.993,-6186.2437,-6162.413,-6127.5815,-6063.5513,-6012.7095,-5977.5107,-5940.7812,-5917.5063,-5908.153,-5915.0107,-5935.8853,-5965.218,-6012.042,-6059.7227,-6095.055,-6136.214,-6171.868,-6185.418,-6183.9785,-6175.349,-6163.106,-6135.0977,-6103.434,-6080.309,-6054.176,-6023.8438,-5995.4824,-5995.9346,-6001.0815,-5992.2524,-6014.5605,-6032.937,-6041.7334,-6086.147,-6116.943,-6124.2744,-6138.5596,-6143.9126,-6149.4136,-6164.3843,-6165.4927,-6140.0605,-6114.899,-6106.511,-6082.853,-6043.2134,-6020.1377,-6019.9297,-6028.8457,-6039.2266,-6049.333,-6058.985,-6071.4004,-6070.1533,-6070.0415,-6088.0415,-6101.9263,-6102.1187,-6077.2373,-6057.2134,-6062.3975,-6084.828,-6111.5215,-6098.771,-6081.8003,-6083.4663,-6088.4746,-6095.9116,-6076.774,-6066.691,-6061.081,-6042.041,-6055.5215,-6055.2856,-6032.8105,-6030.79,-6031.3794,-6038.658,-6050.872,-6064.312,-6075.0444,-6079.4727,-6085.245,-6077.0464,-6076.007,-6074.991,-6058.4277,-6052.546,-6049.3467,-6056.692,-6052.6226,-6036.8457,-6054.39,-6068.8804,-6059.9146,-6046.9155,-6054.3755,-6073.5693,-6069.8716,-6076.6265,-6087.9316,-6075.8,-6067.6636,-6070.972,-6076.5693,-6079.0913,-6091.7964,-6105.822,-6094.714,-6087.376,-6086.865,-6067.4644,-6054.3706,-6049.3413,-6035.5703,-6028.8477,-6020.5044,-6009.6694,-6016.776,-6026.467,-6027.332,-6032.8403,-6056.962,-6089.3057,-6104.5576,-6114.745,-6129.8286,-6137.53,-6139.5176,-6121.382,-6087.5347,-6066.793,-6046.64,-6032.4214,-6031.319,-6025.5103,-6030.255,-6034.619,-6030.009,-6044.554,-6069.4707,-6069.9087,-6054.532,-6064.2397,-6085.6426,-6105.2456,-6111.145,-6098.5137,-6106.907,-6102.7524,-6083.1597,-6080.6885,-6064.824,-6045.508,-6028.017,-6011.4585,-6008.053,-6008.8457,-6014.8022,-6023.0903,-6038.3276,-6047.1304,-6046.0034,-6060.7954,-6073.9165,-6081.341,-6087.682,-6084.716,-6089.2217,-6096.8584,-6099.739,-6092.5,-6079.1055,-6073.106,-6055.8716,-6043.2993,-6048.303,-6040.978,-6034.613,-6044.1,-6058.201,-6081.4077,-6109.68,-6120.7764,-6118.4565,-6122.487,-6113.6553,-6090.7935,-6085.288,-6082.6953,-6073.6567,-6060.8115,-6035.0625,-6024.581,-6028.955,-6023.9385,-6022.177,-6022.7695,-6020.628,-6023.9277,-6029.2524,-6029.991,-6032.7607,-6044.3276,-6059.8496,-6080.8125,-6104.0444,-6119.422,-6125.5425,-6129.8696,-6137.744,-6137.3267,-6122.278,-6099.8867,-6082.5376,-6074.5977,-6068.7817,-6060.232,-6037.909,-6020.7397,-6034.3623,-6055.0474,-6064.7314,-6069.9365,-6078.7715,-6092.5083,-6103.425,-6111.951,-6118.0303,-6107.259,-6083.7544,-6065.3076,-6048.61,-6042.85,-6038.4834,-6024.369,-6028.942,-6031.017,-6023.0156,-6026.5415,-6031.625,-6045.4487,-6058.401,-6068.468,-6086.487,-6096.754,-6101.2637,-6109.142,-6117.5366,-6114.272,-6098.64,-6086.7856,-6084.5522,-6080.4434,-6064.9517,-6055.627,-6063.348,-6072.3516,-6075.13,-6078.763,-6085.1294,-6097.6636,-6112.1875,-6123.4565,-6134.785,-6125.5396,-6118.975,-6133.8735,-6128.268,-6121.4395,-6121.106,-6112.068,-6114.584,-6110.005,-6085.482,-6061.3853,-6055.4287,-6052.064,-6038.8027,-6042.9,-6058.9463,-6065.813,-6071.1826,-6087.226,-6103.923,-6111.1123,-6114.1235,-6114.128,-6117.8916,-6120.4717,-6118.3574,-6115.1636,-6110.3154,-6105.241,-6094.837,-6091.6016,-6085.84,-6070.7866,-6071.7075,-6072.9893,-6078.7876,-6090.5854,-6078.4097,-6078.4624,-6103.1943,-6111.5303,-6112.19,-6126.433,-6143.247,-6149.1484,-6143.8457,-6141.1543,-6150.0337,-6152.386,-6147.0806,-6135.3394,-6113.417,-6101.4297,-6082.0293,-6066.592,-6075.731,-6076.027,-6083.0767,-6094.7896,-6098.61,-6107.531,-6091.8423,-6073.27,-6079.362,-6084.564,-6094.8184,-6095.913,-6081.934,-6078.298,-6066.609,-6054.655,-6056.143,-6054.63,-6048.614,-6045.4536,-6070.8237,-6086.2017,-6075.1313,-6089.993,-6099.2773,-6104.895,-6118.3853,-6120.2114,-6142.7944,-6170.1987,-6188.2393,-6182.1665,-6156.5596,-6150.219,-6115.8823,-6073.899,-6072.254,-6082.412,-6095.1216,-6080.066,-6061.4277,-6063.7437,-6053.247,-6060.752,-6073.3433,-6070.347,-6076.8765,-6077.941,-6081.594,-6080.545,-6070.4507,-6072.2534,-6067.505,-6057.4067,-6049.75,-6051.1294,-6068.026,-6088.627,-6107.2417,-6112.644,-6110.8794,-6108.4917,-6118.518,-6151.1484,-6161.8604,-6145.825,-6143.5273,-6149.735,-6145.99,-6139.72,-6126.888,-6101.571,-6083.22,-6066.4175,-6048.287,-6051.223,-6062.4883,-6061.0596,-6057.6304,-6065.246,-6079.4233,-6087.157,-6085.885,-6085.873,-6084.0986,-6090.9033,-6111.4014,-6109.596,-6102.653,-6114.9126,-6119.751,-6125.412,-6129.241,-6115.2075,-6108.0205,-6118.6055,-6135.8984,-6149.335,-6143.6587,-6129.4556,-6143.639,-6167.486,-6161.2915,-6143.6875,-6132.6304,-6130.7993,-6141.9062,-6148.915,-6140.319,-6121.768,-6090.916,-6082.957,-6111.5854,-6106.431,-6081.6445,-6076.1797,-6076.0513,-6080.4717,-6067.7134,-6072.793,-6093.289,-6092.3345,-6102.586,-6115.74,-6130.018,-6127.1167,-6102.9126,-6090.3926,-6082.503,-6092.092,-6090.357,-6089.165,-6111.2397,-6106.206,-6106.3057,-6111.5645,-6103.7305,-6103.385,-6091.1167,-6085.564,-6084.5557,-6075.712,-6074.765,-6076.516,-6074.816,-6065.43,-6070.3164,-6077.045,-6075.647,-6093.4004,-6108.17,-6107.813,-6097.8467,-6100.5005,-6117.7637,-6128.8496,-6151.2065,-6151.625,-6134.299,-6138.527,-6140.497,-6148.703,-6153.8877,-6144.8755,-6136.5513,-6122.2505,-6128.277,-6131.489,-6111.795,-6113.6523,-6109.348,-6100.346,-6101.645,-6082.194,-6077.331,-6080.5312,-6069.687,-6070.078,-6074.079,-6080.9663,-6085.721,-6090.1445,-6096.5815,-6098.0015,-6111.2397,-6121.4185,-6122.8184,-6148.397,-6178.548,-6163.168,-6160.652,-6183.4053,-6146.7446,-6127.7007,-6131.8735,-6108.7383,-6121.705,-6113.1094,-6092.091,-6096.087,-6090.683,-6094.1445,-6078.051,-6077.2847,-6087.4463,-6077.297,-6089.0415,-6089.284,-6098.2583,-6107.6963,-6089.7583,-6097.508,-6112.6987,-6116.4585,-6111.4517,-6115.12,-6141.487,-6154.0083,-6153.566,-6166.25,-6189.2695,-6193.816,-6177.349,-6167.3677,-6151.584,-6116.134,-6101.9937,-6111.293,-6100.484,-6093.5195,-6104.392,-6093.989,-6081.2983,-6095.439,-6095.5874,-6080.5215,-6076.3164,-6070.3726,-6077.7627,-6083.819,-6082.0356,-6097.0547,-6108.5625,-6109.0444,-6098.17,-6087.4443,-6082.773,-6086.095,-6104.0093,-6104.0957,-6100.1533,-6110.1147,-6117.081,-6119.3154,-6110.796,-6120.677,-6148.6973,-6147.902,-6125.8545,-6110.4937,-6118.356,-6133.689,-6126.287,-6120.2183,-6121.862,-6121.0874,-6139.659,-6157.4194,-6157.1094,-6146.1284,-6116.3545,-6096.32,-6096.3174,-6091.976,-6091.817,-6093.06,-6096.3403,-6099.599,-6084.383,-6077.42,-6077.594,-6081.4233,-6101.0186,-6097.6416,-6083.288,-6082.394,-6079.8174,-6073.582,-6074.197,-6091.4243,-6114.5127,-6144.7383,-6158.306,-6151.3945,-6154.5186,-6143.1606,-6124.8955,-6115.1113,-6117.5024,-6131.2866,-6121.269,-6113.8794,-6126.105,-6130.3755,-6123.971,-6116.317,-6114.6597,-6105.955,-6096.529,-6098.3857,-6110.327,-6118.923,-6110.4673,-6109.8877,-6116.086,-6116.2754,-6112.6,-6099.3306,-6092.64,-6099.687,-6099.9697,-6083.34,-6079.388,-6108.4927,-6119.373,-6103.744,-6125.9663,-6153.97,-6160.1387,-6174.8105,-6173.2534,-6172.816,-6166.2373,-6145.282,-6147.484,-6139.277,-6128.607,-6120.9346,-6103.164,-6091.3506,-6071.348,-6069.1978,-6081.356,-6079.523,-6084.0312,-6092.8555,-6096.555,-6096.7783,-6095.1943,-6092.5054,-6085.541,-6081.653,-6092.619,-6104.715,-6097.8687,-6093.6177,-6100.1245,-6094.497,-6097.7314,-6127.0156,-6163.5913,-6184.263,-6172.5723,-6168.211,-6189.255,-6210.1377,-6221.7925,-6193.9746,-6158.9087,-6155.7173,-6127.0215,-6091.457,-6088.5796,-6071.003,-6053.1475,-6052.5474,-6051.3335,-6061.92,-6070.0757,-6077.3174,-6084.8774,-6077.55,-6067.075,-6076.989,-6101.6914,-6096.5684,-6085.845,-6079.287,-6067.053,-6076.504,-6074.39,-6087.883,-6121.0625,-6128.7793,-6143.0664,-6140.226,-6121.7563,-6119.339,-6111.6445,-6095.0166,-6077.7637,-6078.2427,-6091.282,-6118.92,-6157.3867,-6171.386,-6177.5,-6213.104,-6254.8604,-6257.7393,-6256.354,-6256.585,-6225.8784,-6194.768,-6167.1455,-6139.449,-6115.884,-6094.509,-6072.977,-6058.5957,-6066.3955,-6066.9907,-6062.16,-6052.958,-6030.35,-6027.801,-6026.285,-6005.12,-6000.1665,-6015.1025,-6020.9688,-6030.0806,-6051.002,-6067.2754,-6083.804,-6096.5415,-6115.5,-6135.8945,-6128.2524,-6128.4473,-6149.338,-6158.7163,-6176.4473,-6191.2075,-6178.297,-6167.5293,-6136.321,-6081.5044,-6050.8687,-6032.892,-6029.8315,-6041.6313,-6047.224,-6058.7266,-6073.3315,-6083.3926,-6092.8286,-6102.9136,-6099.2144,-6078.934,-6064.2803,-6057.6714,-6055.3013,-6048.2075,-6045.2983,-6051.104,-6042.627,-6040.431,-6048.5884,-6053.3516,-6060.541,-6060.49,-6081.795,-6123.685,-6144.7275,-6172.6396,-6207.2896,-6199.0205,-6181.699,-6190.181,-6170.776,-6128.7197,-6108.6455,-6089.1387,-6057.3823,-6029.444,-6022.2036,-6015.2534,-6001.5493,-6010.7686,-6022.9253,-6032.923,-6040.5405,-6036.359,-6039.164,-6036.045,-6036.3315,-6051.0474,-6058.003,-6064.077,-6068.6377,-6064.4233,-6050.1606,-6030.224,-6022.6494,-6021.9355,-6018.942,-6019.61,-6040.555,-6081.2407,-6096.5513,-6090.618,-6095.69,-6084.926,-6066.2993,-6067.1475,-6062.9766,-6056.2236,-6060.588,-6062.4727,-6060.7837,-6062.431,-6072.447,-6083.174,-6086.9287,-6075.125,-6049.418,-6027.942,-6014.6772,-6016.926,-6015.153,-6016.481,-6027.4727,-6020.8496,-6029.6553,-6037.7256,-6047.8423,-6066.069,-6043.545,-6036.749,-6043.8555,-6037.075,-6045.839,-6040.18,-6032.063,-6039.5986,-6045.3403,-6058.174,-6073.4507,-6067.076,-6052.324,-6062.2075,-6072.2524,-6066.5073,-6059.533,-6050.8193,-6053.759,-6058.4478,-6045.634,-6037.236,-6078.543,-6134.9404,-6130.3887,-6115.769,-6120.746,-6113.979,-6084.011,-6030.5938,-6018.2793,-6021.9746,-6010.429,-6027.961,-6025.5054,-6002.4546,-5998.207,-5993.6865,-5996.9404,-6006.0137,-5997.624,-5982.9336,-5978.5786,-5980.6685,-5980.892,-5976.3433,-5988.468,-6005.3794,-6006.375,-6018.084,-6029.9556,-6038.9834,-6059.5425,-6070.52,-6062.7476,-6048.77,-6042.6777,-6039.3257,-6037.8066,-6035.8735,-6036.007,-6040.906,-6032.9995,-6021.0444,-6017.359,-6034.022,-6044.48,-6029.0547,-6034.4956,-6042.3813,-6035.634,-6037.3906,-6034.3955,-6022.972,-6009.851,-6004.5483,-6009.991,-6021.1206,-6030.451,-6029.412,-6023.943,-6022.701,-6032.823,-6036.8486,-6026.577,-6025.683,-6038.735,-6061.0728,-6067.0093,-6056.9126,-6063.271,-6060.917,-6049.6045,-6047.778,-6038.632,-6032.6006,-6025.537,-6007.335,-5993.8374,-5989.0938,-5991.3525,-5990.3765,-5991.0884,-6011.0405,-6016.4414,-6000.9673,-6012.1475,-6025.726,-6025.5747,-6031.8857,-6021.788,-6016.908,-6029.7676,-6022.83,-6013.4204,-6022.768,-6016.9067,-5999.1167,-6003.9307,-6001.1997,-5990.391,-5992.2324,-5999.9556,-6015.2104,-6003.01,-5994.0273,-6012.0723,-6016.1523,-6009.1562,-5991.3813,-5990.2896,-5998.046,-6006.1763,-6026.418,-6019.6865,-6017.9062,-6023.5454,-6017.3975,-6020.2573,-6015.7007,-6013.482,-6011.401,-6015.2554,-6024.883,-6009.2637,-5997.3174,-6001.748,-6021.595,-6057.1914,-6072.674,-6087.0957,-6105.213,-6093.087,-6091.372,-6086.9653,-6045.276,-6013.407,-5990.3154,-5989.747,-6000.9565,-5985.652,-5986.564,-5975.2646,-5962.478,-5977.568,-5959.422,-5954.435,-5961.318,-5940.0586,-5945.026,-5958.886,-5968.4785,-5982.0083,-5993.3896,-6011.6895,-6007.7866,-5996.23,-6012.0625,-6043.46,-6054.894,-6042.828,-6044.1216,-6032.1074,-6017.698,-6030.5625,-6025.7124,-6010.953,-6002.7417,-5996.244,-5987.224,-5978.3413,-5994.5864,-6012.445,-6012.977,-6016.8257,-6039.758,-6062.141,-6057.8057,-6041.95,-6023.636,-6011.5063,-6000.8804,-6004.0234,-6027.2173,-6017.177,-6005.79,-6006.4644,-5981.0513,-5979.2427,-5993.282,-5993.733,-5991.6724,-5983.6245,-5988.9707,-5997.945,-6009.5137,-6021.852,-6014.277,-6012.02,-6005.5557,-5988.019,-5976.14,-5966.3926,-5973.432,-5982.204
-5976.7524,-5983.513,-5993.0986,-5982.5454,-5981.6865,-5994.0713,-5991.7607,-5984.643,-5984.7686,-5993.422,-5995.698,-6003.8384,-6024.413,-6013.266,-6008.2427,-6026.105,-6024.2344,-6024.2505,-6014.7007,-6001.507,-6001.585,-5998.755,-6004.786,-5986.785,-5971.2886,-5983.8296,-5976.2744,-5976.77,-5975.0005,-5961.4375,-5961.3076,-5955.6504,-5966.4,-5989.636,-6007.838,-6028.3696,-6032.388,-6022.6206,-6017.137,-6027.617,-6044.0913,-6041.5957,-6027.884,-6022.7104,-6013.3984,-5998.4077,-5994.287,-5981.814,-5973.146,-5969.618,-5956.4985,-5964.1313,-5957.469,-5949.0854,-5970.8774,-5971.4165,-5975.7354,-5983.5254,-5986.702,-6004.2163,-5995.7363,-6011.0063,-6034.584,-6001.577,-6008.69,-6037.7983,-6024.4673,-6033.2866,-6055.553,-6062.169,-6062.3687,-6056.8193,-6041.7056,-6011.236,-5995.3774,-5992.5664,-5985.449,-5989.8643,-5998.128,-5991.184,-5973.6465,-5975.27,-5978.5137,-5956.278,-5943.5596,-5943.5835,-5940.0522,-5935.1055,-5928.2847,-5924.869,-5927.7837,-5937.0293,-5945.5454,-5955.173,-5962.842,-5968.1035,-5980.056,-5988.2163,-6002.1826,-6012.5557,-6023.445,-6050.532,-6036.9814,-6020.0024,-6032.576,-6018.4336,-6014.618,-6013.938,-5991.4844,-5981.4595,-5973.019,-5981.431,-6013.661,-6018.5737,-5989.255,-5976.9395,-5971.1226,-5960.6274,-5990.8726,-6015.7,-6000.2197,-5999.932,-6012.616,-5991.413,-5972.283,-5981.7593,-5969.2515,-5954.8477,-5944.719,-5929.367,-5934.755,-5937.9795,-5950.6523,-5968.387,-5971.7812,-5974.503,-5968.643,-5965.313,-5963.378,-5958.17,-5965.7246,-5980.21,-5978.5854,-5970.473,-5978.4575,-5973.874,-5961.0737,-5959.57,-5958.384,-5966.571,-5970.411,-5970.145,-5973.3506,-5970.5967,-5980.479,-5992.8213,-5994.42,-6012.2886,-6033.187,-6012.151,-5986.401,-5993.018,-5981.476,-5958.848,-5952.822,-5943.2734,-5937.168,-5936.52,-5941.4634,-5952.164,-5950.838,-5952.4497,-5970.1636,-5972.7505,-5955.8765,-5942.9663,-5930.6895,-5923.6426,-5917.0156,-5910.6816,-5919.7524,-5916.867,-5915.107,-5928.6694,-5932.7417,-5940.9673,-5944.192,-5945.6167,-5959.667,-5967.27,-5976.2344,-5988.603,-5997.67,-6007.3696,-6012.116,-6009.6187,-6016.5493,-6034.236,-6024.8403,-6002.513,-6010.1826,-6016.251,-6013.7974,-6015.694,-5983.0903,-5958.95,-5965.501,-5951.178,-5950.884,-5945.64,-5921.4224,-5929.9434,-5931.295,-5932.939,-5941.872,-5918.6094,-5908.0693,-5917.532,-5924.273,-5925.6133,-5910.0977,-5913.774,-5932.158,-5935.2417,-5947.1406,-5954.048,-5962.6055,-5983.2554,-5986.6523,-5993.3203,-5990.3037,-5977.246,-5986.672,-5997.283,-5994.0146,-5975.4595,-5968.529,-5964.521,-5943.909,-5930.9966,-5915.8833,-5921.25,-5938.663,-5941.7114,-5966.7007,-5986.1587,-5986.2163,-6003.008,-6020.483,-6016.4146,-6019.0073,-6032.774,-6015.6035,-5993.8105,-5985.5923,-5971.817,-5971.178,-5957.9077,-5923.4126,-5908.82,-5917.244,-5923.5425,-5910.6543,-5910.547,-5923.9077,-5916.7773,-5920.4785,-5928.4497,-5923.916,-5930.138,-5922.5835,-5912.0967,-5915.318,-5919.196,-5921.593,-5919.4453,-5942.108,-5962.487,-5955.2446,-5948.535,-5950.779,-5976.272,-5983.8813,-5977.403,-6004.3784,-6017.8394,-6005.302,-5990.8726,-5980.053,-5967.807,-5947.525,-5943.2437,-5935.425,-5920.835,-5918.7915,-5907.9346,-5909.1377,-5918.8223,-5924.2266,-5937.204,-5940.8115,-5947.1597,-5953.3765,-5953.0366,-5951.31,-5952.2915,-5981.9463,-6000.345,-5987.7534,-5983.049,-5982.413,-5978.088,-5968.5015,-5961.2437,-5953.047,-5938.662,-5945.9243,-5960.44,-5948.141,-5933.942,-5950.58,-5973.026,-5977.977,-5969.8906,-5955.82,-5953.7705,-5946.775,-5927.994,-5925.481,-5939.902,-5956.9067,-5965.39,-5965.1855,-5958.9756,-5949.3896,-5935.2515,-5937.373,-5962.3887,-5967.994,-5949.3623,-5925.879,-5928.5244,-5939.916,-5926.3115,-5931.4214,-5933.3594,-5923.997,-5926.515,-5915.072,-5915.8076,-5922.6836,-5920.184,-5920.61,-5926.4004,-5951.1685,-5963.252,-5947.6587,-5945.9805,-5984.673,-6021.682,-6025.319,-6022.964,-5996.734,-5955.614,-5933.6426,-5914.059,-5916.852,-5932.5938,-5911.971,-5898.0015,-5910.591,-5903.434,-5898.389,-5906.3584,-5906.405,-5908.104,-5912.2983,-5915.219,-5913.7827,-5921.3853,-5931.239,-5925.8433,-5927.3174,-5925.7456,-5919.642,-5933.3335,-5943.57,-5939.1714,-5934.4883,-5930.2305,-5926.3687,-5923.2705,-5940.1475,-5968.0293,-5961.1445,-5943.622,-5937.355,-5936.3438,-5963.724,-5978.337,-5957.93,-5944.7363,-5937.533,-5922.785,-5897.475,-5891.657,-5910.7456,-5903.4395,-5900.812,-5923.0244,-5920.4067,-5914.239,-5909.5947,-5896.52,-5906.1245,-5906.932,-5899.7983,-5904.019,-5894.4604,-5900.208,-5904.6343,-5896.888,-5914.135,-5924.952,-5933.0723,-5947.1865,-5954.438,-5963.9233,-5974.6533,-5987.145,-5990.2754,-6011.8354,-6029.0327,-6014.458,-6017.7354,-6002.271,-5968.9053,-5953.008,-5939.292,-5932.439,-5913.079,-5901.33,-5910.71,-5903.211,-5888.5156,-5897.3623,-5912.811,-5907.25,-5905.367,-5899.9478,-5886.3906,-5889.9814,-5883.447,-5886.4463,-5908.9106,-5901.875,-5889.228,-5903.8755,-5921.61,-5915.718,-5901.3003,-5909.5713,-5924.712,-5928.2246,-5935.518,-5950.2764,-5956.2905,-5950.0024,-5941.669,-5929.682,-5918.018,-5907.036,-5891.153,-5891.32,-5913.506,-5938.231,-5931.4907,-5894.981,-5886.5845,-5895.434,-5884.929,-5887.365,-5915.7495,-5932.2554,-5933.1567,-5937.3447,-5932.035,-5927.816,-5922.059,-5900.609,-5893.9907,-5898.5303,-5896.762,-5895.603,-5896.5825,-5897.306,-5900.169,-5905.2476,-5900.8315,-5896.212,-5895.3594,-5895.854,-5915.649,-5938.343,-5939.5503,-5933.3564,-5929.7275,-5921.212,-5919.1875,-5919.6934,-5911.7085,-5920.5566,-5930.148,-5917.6567,-5907.574,-5913.543,-5918.3477,-5915.047,-5923.016,-5918.911,-5909.419,-5927.206,-5947.308,-5958.5264,-5951.4053,-5942.9624,-5945.9365,-5937.633,-5935.07,-5930.8076,-5923.108,-5928.6216,-5921.2075,-5907.784,-5905.6436,-5900.548,-5897.439,-5904.9976,-5912.6304,-5907.7676,-5898.001,-5900.3647,-5899.2695,-5890.52,-5896.89,-5903.6245,-5904.325,-5901.334,-5886.7993,-5886.468,-5892.8887,-5896.775,-5913.2456,-5921.2886,-5922.45,-5911.7095,-5891.532,-5892.251,-5896.4434,-5912.209,-5929.253,-5922.7285,-5931.3525,-5929.86,-5910.239,-5910.447,-5905.304,-5895.023,-5895.913,-5908.7134,-5922.2886,-5918.817,-5910.9307,-5907.6597,-5904.3237,-5896.837,-5893.7397,-5896.8096,-5900.0664,-5898.4966,-5892.427,-5905.9346,-5922.875,-5922.8027,-5920.7314,-5920.1025,-5918.937,-5904.449,-5896.519,-5908.3584,-5909.3984,-5912.339,-5920.4917,-5918.107,-5915.5464,-5911.0723,-5911.273,-5901.9897,-5894.077,-5916.654,-5914.0356,-5910.475,-5926.698,-5908.9785,-5911.884,-5920.631,-5912.112,-5922.939,-5919.5596,-5928.9272,-5938.8774,-5916.271,-5902.1387,-5898.546,-5901.59,-5900.129,-5893.3936,-5892.474,-5892.029,-5894.0474,-5901.3965,-5917.248,-5927.8193,-5925.498,-5919.2188,-5928.111,-5940.2275,-5933.3696,-5941.5464,-5958.4146,-5959.793,-5955.6206,-5947.03,-5948.1846,-5948.538,-5935.704,-5936.963,-5950.6035,-5947.1333,-5920.869,-5912.908,-5939.8115,-5930.36,-5907.3813,-5927.3,-5918.4595,-5908.9927,-5916.1577,-5898.221,-5906.4326,-5905.9956,-5894.6953,-5898.1587,-5895.559,-5911.94,-5916.1387,-5921.7627,-5939.458,-5933.8145,-5930.6084,-5929.2944,-5920.789,-5910.73,-5910.1665,-5911.209,-5907.2905,-5909.483,-5902.521,-5902.863,-5910.2217,-5905.2544,-5908.3447,-5922.507,-5934.991,-5946.121,-5951.025,-5937.2725,-5928.112,-5934.307,-5937.3853,-5936.081,-5916.604,-5899.567,-5906.6045,-5903.9824,-5899.4434,-5912.653,-5922.147,-5923.3945,-5925.514,-5927.2104,-5920.612,-5914.5586,-5922.798,-5921.0024,-5910.792,-5913.529,-5916.745,-5929.783,-5939.5205,-5927.6567,-5928.293,-5934.2686,-5929.382,-5927.776,-5929.2515,-5933.4395,-5927.077,-5916.7134,-5914.6934,-5903.7866,-5898.402,-5896.1855,-5892.3745,-5907.0576,-5913.418,-5909.572,-5906.562,-5898.9253,-5904.2217,-5909.451,-5911.087,-5917.972,-5910.2856,-5909.5806,-5932.644,-5936.703,-5926.0605,-5924.1235,-5927.8315,-5948.9126,-5960.803,-5962.1777,-5972.0034,-5978.3906,-5978.9224,-5956.9766,-5940.013,-5930.659,-5911.711,-5906.1606,-5895.533,-5892.162,-5888.7783,-5883.1074,-5897.4473,-5893.259,-5895.672,-5911.1772,-5912.064,-5913.6504,-5909.0327,-5908.962,-5911.384,-5907.4775,-5908.3687,-5921.5913,-5940.458,-5950.07,-5965.3228,-5973.3906,-5980.356,-5990.2256,-5974.0806,-5960.6245,-5935.4844,-5914.846,-5922.7026,-5908.6133,-5915.46,-5933.4385,-5920.504,-5921.1323,-5935.102,-5961.573,-5983.579,-5977.9297,-5959.006,-5941.271,-5933.317,-5924.2803,-5924.0166,-5924.777,-5924.7197,-5931.4326,-5918.698,-5908.206,-5908.9746,-5907.9287,-5910.224,-5921.314,-5938.531,-5938.3364,-5936.9043,-5938.4585,-5929.2407,-5914.6963,-5901.662,-5904.6294,-5912.9165,-5934.457,-5950.1323,-5933.831,-5918.1885,-5905.4775,-5906.836,-5918.1567,-5908.46,-5901.982,-5908.74,-5906.3604,-5905.4883,-5909.9756,-5906.1226,-5916.7485,-5929.226,-5922.463,-5919.616,-5934.3765,-5958.2583,-5950.556,-5952.2183,-5980.206,-5971.5923,-5967.7065,-5958.743,-5931.9375,-5927.6914,-5912.9434,-5898.493,-5886.166,-5882.917,-5895.6094,-5885.6626,-5892.7324,-5908.4785,-5904.541,-5907.995,-5907.7686,-5905.4404,-5904.8755,-5920.5356,-5940.431,-5926.709,-5922.309,-5937.1147,-5947.343,-5964.349,-5971.1084,-5967.3906,-5962.6895,-5957.5674,-5955.2646,-5949.793,-5950.8394,-5946.753,-5938.536,-5941.439,-5934.5405,-5920.5713,-5913.841,-5924.4175,-5941.565,-5927.436,-5903.5205,-5900.4893,-5903.064,-5908.5137,-5914.022,-5919.194,-5926.1416,-5925.829,-5924.6377,-5921.46,-5917.78,-5920.4316,-5927.9365,-5938.8027,-5950.7734,-5974.7847,-5994.715,-6001.843,-6012.416,-6012.368,-5998.992,-5977.779,-5950.4893,-5929.162,-5927.0938,-5927.89,-5905.9917,-5895.186,-5904.6035,-5911.011,-5920.2705,-5928.759,-5929.6562,-5912.009,-5897.183,-5908.8594,-5914.923,-5914.1597,-5916.1626,-5905.38,-5894.03,-5900.1035,-5914.25,-5915.697,-5911.8716,-5917.1436,-5921.8145,-5930.4287,-5943.1206,-5943.4585,-5940.472,-5938.675,-5926.8633,-5917.1914,-5914.1035,-5900.0977,-5891.5796,-5900.243,-5906.8696,-5921.8545,-5941.7114,-5957.027,-5975.3433,-5971.858,-5952.8467,-5948.201,-5961.9243,-5977.275,-5962.301,-5941.535,-5938.3257,-5926.714,-5918.284,-5919.251,-5915.3926,-5913.2715,-5916.8877,-5926.186,-5922.054,-5905.723,-5899.1387,-5896.6104,-5912.819,-5936.078,-5939.84,-5947.9736,-5947.543,-5938.379,-5951.7856,-5962.0356,-5969.552,-5986.765,-5979.0234,-5952.261,-5943.077,-5946.043,-5927.642,-5908.5503,-5919.1772,-5923.5884,-5925.311,-5934.15,-5930.543,-5936.406,-5956.4053,-5986.4126,-6005.033,-5984.3804,-5969.031,-5970.916,-5944.2515,-5905.875,-5892.852,-5888.9146,-5886.7725,-5898.553,-5908.9634,-5911.5117,-5916.421,-5916.246,-5908.243,-5905.584,-5914.8374,-5919.677,-5908.452,-5906.001,-5915.3545,-5917.6196,-5919.3257,-5927.7563,-5936.586,-5936.917,-5943.299,-5957.1553,-5965.0864,-5965.3555,-5949.291,-5944.407,-5951.688,-5951.755,-5961.007,-5959.406,-5952.391,-5952.1426,-5946.302,-5947.61,-5941.4053,-5927.418,-5919.41,-5920.0825,-5930.4053,-5927.956,-5925.9517,-5933.7295,-5939.383,-5950.326,-5951.642,-5950.277,-5955.729,-5947.662,-5941.2407,-5942.7207,-5939.0024,-5931.0,-5919.9243,-5914.556,-5908.392,-5907.041,-5918.406,-5933.128,-5959.2397,-5969.4966,-5969.222,-5986.629,-5973.8433,-5941.3096,-5933.9546,-5932.8135,-5943.8203,-5958.2944,-5930.212,-5911.2114,-5930.9634,-5926.616,-5927.635,-5939.1636,-5931.2676,-5935.7925,-5929.157,-5922.9604,-5929.4175,-5919.44,-5921.67,-5927.802,-5921.1743,-5923.713,-5937.4604,-5945.8223,-5953.8975,-5960.2285,-5947.6475,-5946.547,-5949.192,-5938.2856,-5935.418,-5932.4365,-5932.6,-5936.4043,-5946.3467,-5963.0537,-5960.075,-5948.2056,-5948.7085,-5937.971,-5912.967,-5905.7554,-5904.419,-5899.1367,-5903.6484,-5904.638,-5905.1123,-5914.7593,-5922.048,-5930.3486,-5943.837,-5948.5186,-5949.43,-5958.338,-5958.276,-5944.922,-5951.19,-5974.6787,-5962.615,-5940.536,-5954.868,-5960.062,-5952.4297,-5950.4644,-5941.478,-5922.926,-5896.4204,-5901.379,-5914.0537,-5911.967,-5924.9307,-5924.8105,-5922.853,-5919.1377,-5912.62,-5927.036,-5926.961,-5922.3613,-5923.826,-5922.0537,-5931.6187,-5940.1743,-5938.359,-5938.456,-5949.592,-5948.232,-5937.085,-5945.1934,-5959.497,-5966.3657,-5962.9897,-5951.5767,-5939.9526,-5931.2007,-5927.5103,-5932.8325,-5942.7046,-5944.1724,-5941.4546,-5933.6895,-5933.0195,-5950.486,-5959.9136,-5959.1646,-5940.2363,-5919.85,-5937.2495,-5943.454,-5935.0366,-5945.4077,-5943.2153,-5941.5435,-5947.0806,-5948.303,-5953.5874,-5952.646,-5955.7954,-5966.8726,-5981.571,-5986.0493,-5969.846,-5961.168,-5956.6636,-5945.648,-5934.82,-5918.145,-5904.81,-5907.532,-5913.8096,-5913.468,-5918.623,-5928.7104,-5930.4673,-5928.714,-5935.707,-5940.4795,-5938.4062,-5943.222,-5937.7837,-5922.5107,-5925.586,-5934.7236,-5930.1157,-5927.9775,-5948.024,-5968.7114,-5971.395,-5982.9014,-5994.0596,-5975.6953,-5970.1416,-5985.7637,-5979.8154,-5962.1904,-5947.631,-5948.504,-5943.888,-5915.395,-5906.971,-5904.794,-5898.9023,-5912.4624
-5928.5063,-5934.69,-5939.5293,-5944.729,-5934.5215,-5935.15,-5940.4067,-5929.943,-5936.165,-5936.6665,-5931.0947,-5929.9854,-5925.464,-5934.889,-5936.821,-5929.517,-5927.1025,-5935.5903,-5949.3213,-5953.101,-5963.448,-5965.4126,-5957.4375,-5958.7373,-5961.2095,-5965.413,-5958.805,-5956.9673,-5963.3936,-5951.068,-5949.9106,-5950.362,-5932.9326,-5936.97,-5949.8076,-5955.145,-5959.9727,-5953.367,-5948.8027,-5948.5825,-5932.979,-5914.682,-5938.217,-5977.214,-5975.085,-5975.8945,-5999.6265,-6014.2593,-6003.9863,-5979.326,-5966.876,-5944.254,-5930.553,-5935.406,-5933.1646,-5947.123,-5963.781,-5986.966,-6009.091,-6017.843,-6022.923,-5989.18,-5958.5347,-5943.237,-5923.385,-5922.7656,-5918.1333,-5926.6133,-5928.743,-5924.969,-5948.7065,-5942.6523,-5934.6562,-5935.498,-5922.0693,-5925.7344,-5926.132,-5932.2266,-5938.878,-5936.06,-5937.424,-5930.747,-5933.2666,-5926.8794,-5924.3633,-5950.4717,-5953.6406,-5948.266,-5965.5938,-5975.789,-5975.783,-5984.3213,-5989.438,-5995.222,-6009.1494,-6002.789,-5985.83,-5969.6226,-5959.5923,-5967.331,-5957.329,-5947.051,-5961.845,-5971.5435,-5976.8286,-5973.0,-5968.859,-5964.0083,-5950.118,-5955.7095,-5944.7744,-5929.7056,-5946.531,-5936.91,-5925.612,-5932.4824,-5927.4966,-5936.5728,-5940.4546,-5935.7305,-5943.65,-5951.0244,-5962.666,-5959.613,-5947.992,-5952.965,-5956.879,-5961.422,-5967.2695,-5968.374,-5964.353,-5948.0625,-5934.122,-5944.8867,-5960.302,-5961.554,-5976.528,-5985.624,-5988.37,-6019.159,-6034.4688,-6034.3623,-6035.9434,-6024.617,-6013.3184,-5986.276,-5950.45,-5933.1562,-5929.5923,-5935.355,-5948.0264,-5948.9736,-5936.6245,-5942.607,-5947.1953,-5936.51,-5929.593,-5929.3535,-5957.3325,-5977.9233,-5962.283,-5949.9873,-5943.7935,-5935.061,-5929.9272,-5931.1284,-5937.801,-5942.2725,-5940.0645,-5950.422,-5964.0854,-5955.3384,-5956.5405,-5958.636,-5950.527,-5952.482,-5948.3354,-5943.8057,-5927.267,-5916.0493,-5925.5825,-5921.6006,-5937.1396,-5957.945,-5956.1836,-5968.8164,-5984.654,-5992.536,-5993.4077,-5987.3154,-5984.354,-5981.775,-5979.5586,-5973.4556,-5960.7207,-5947.438,-5939.545,-5936.5093,-5937.5586,-5936.6455,-5934.3306,-5936.2607,-5930.7725,-5938.9795,-5958.866,-5964.8594,-5973.9233,-5979.2207,-5983.9355,-5987.289,-5974.172,-5969.066,-5971.3984,-5974.1953,-5978.0054,-5977.8633,-5983.6245,-5988.8193,-5999.0684,-6016.736,-6013.0625,-6003.0117,-6006.3013,-5992.908,-5970.8413,-5959.259,-5939.278,-5926.1484,-5925.177,-5923.7314,-5930.917,-5934.557,-5943.335,-5963.8125,-5971.8237,-5963.1763,-5951.555,-5961.217,-5966.427,-5955.377,-5961.9214,-5959.611,-5952.449,-5949.189,-5931.199,-5932.4497,-5941.498,-5938.447,-5938.3057,-5944.5547,-5959.932,-5962.6597,-5955.767,-5957.0063,-5954.139,-5947.7734,-5942.803,-5936.848,-5937.945,-5941.78,-5937.842,-5936.5327,-5941.6245,-5961.666,-5984.2056,-5980.2695,-5975.0405,-5975.1763,-5967.2217,-5967.2334,-5974.841,-5980.796,-5981.3823,-5975.73,-5973.0913,-5976.4097,-5968.1387,-5946.9976,-5939.9185,-5947.556,-5938.4243,-5923.2866,-5936.365,-5941.75,-5929.2676,-5935.696,-5946.4424,-5949.511,-5945.57,-5962.2275,-6006.6436,-6018.1987,-6002.7905,-5998.3574,-5989.6987,-5965.217,-5945.2124,-5942.7827,-5932.6133,-5918.307,-5931.294,-5942.674,-5942.516,-5949.9263,-5938.4214,-5943.3438,-5967.003,-5965.126,-5974.9897,-5973.6797,-5962.346,-5966.07,-5954.155,-5954.398,-5954.736,-5946.7075,-5945.4507,-5941.0454,-5953.4155,-5950.7275,-5938.5635,-5952.5327,-5957.688,-5956.322,-5955.0903,-5948.2173,-5951.5386,-5955.4927,-5961.9414,-5973.169,-5971.333,-5969.1187,-5965.875,-5950.086,-5951.825,-5963.833,-5956.315,-5956.0107,-5970.8975,-5971.028,-5949.3975,-5937.046,-5949.1084,-5951.488,-5951.114,-5957.067,-5954.537,-5954.7124,-5945.2925,-5941.659,-5947.426,-5937.247,-5929.9653,-5931.974,-5943.4946,-5950.024,-5954.599,-5967.3496,-5957.182,-5952.6064,-5970.38,-5980.537,-5988.312,-5991.6284,-5993.994,-6005.1934,-6007.9087,-5996.505,-5993.565,-5997.386,-5987.9697,-5982.3145,-5989.413,-5998.798,-6004.9604,-5995.5786,-5983.556,-5979.4854,-5972.02,-5968.4624,-5970.1704,-5968.57,-5960.306,-5946.284,-5936.835,-5938.133,-5953.1616,-5967.0547,-5967.2373,-5958.0713,-5950.489,-5958.699,-5949.2046,-5923.8057,-5923.594,-5934.253,-5940.302,-5935.8066,-5944.8066,-5968.695,-5969.735,-5969.649,-5979.998,-5972.751,-5957.1655,-5967.021,-5974.3154,-5960.825,-5964.747,-5979.739,-5988.647,-5977.8877,-5960.98,-5953.137,-5941.4766,-5945.3706,-5941.0527,-5928.7554,-5939.143,-5942.229,-5940.0684,-5939.764,-5939.8364,-5945.056,-5940.327,-5934.853,-5938.2437,-5941.3906,-5937.093,-5929.4917,-5925.491,-5922.3096,-5926.5967,-5938.782,-5952.526,-5963.411,-5966.908,-5974.5186,-5980.6035,-5975.4443,-5977.737,-6002.401,-6033.306,-6037.357,-6024.834,-6004.3115,-5977.442,-5974.2236,-5960.006,-5931.552,-5928.3804,-5926.0933,-5931.6235,-5945.5747,-5952.794,-5962.59,-5968.3145,-5973.6084,-5981.479,-5992.078,-5976.2285,-5950.5503,-5968.0938,-5977.684,-5978.0576,-5989.1523,-5981.382,-5982.299,-5970.511,-5950.987,-5955.9126,-5954.697,-5963.886,-5969.344,-5979.344,-6006.8057,-5996.45,-5982.105,-5964.171,-5943.2427,-5953.3467,-5948.409,-5947.265,-5950.4116,-5942.276,-5961.418,-5973.9424,-5952.3237,-5936.8022,-5946.6084,-5946.33,-5945.736,-5959.397,-5963.6606,-5974.5503,-5975.525,-5978.239,-5994.8584,-5988.638,-5983.0005,-5982.3667,-5980.8003,-5981.008,-5986.205,-5991.2217,-5978.574,-5987.9604,-5989.038,-5963.3867,-5972.258,-5991.3145,-5989.252,-5969.0293,-5958.1675,-5959.8945,-5944.574,-5943.552,-5955.192,-5961.3193,-5965.3027,-5957.297,-5957.864,-5965.2236,-5961.738,-5948.123,-5936.3564,-5942.267,-5951.444,-5951.1914,-5952.1675,-5968.622,-5981.9653,-5979.7954,-5985.998,-5989.35,-5987.749,-5991.869,-5985.3203,-5974.7866,-5967.9917,-5969.4707,-5974.3716,-5977.0347,-5984.524,-5973.7505,-5962.4517,-5965.6616,-5964.7207,-5974.832,-5976.694,-5974.5723,-5979.887,-5973.9795,-5980.96,-5994.132,-5999.7856,-6000.7935,-5999.825,-6007.5,-6011.215,-6016.6924,-6011.8516,-5993.3613,-5991.7744,-5981.056,-5967.048,-5976.744,-5974.799,-5965.2466,-5979.3364,-5998.207,-5994.7915,-5982.429,-5979.146,-5978.34,-5986.9194,-5996.525,-5985.5337,-5979.7124,-5994.8193,-6000.709,-5989.783,-5987.4585,-5988.4136,-5978.6885,-5977.783,-5985.1245,-5989.19,-5990.336,-5994.2983,-6010.278,-6015.889,-6005.796,-5998.2847,-5990.553,-5981.851,-5973.617,-5973.7754,-5970.038,-5964.1177,-5991.8384,-6008.518,-5989.171,-5997.178,-6025.2583,-6034.495,-6028.2334,-6021.1147,-6015.961,-5999.4106,-5991.601,-5991.66,-5982.763,-5981.6587,-5981.54,-5984.073,-5985.6123,-5983.204,-5986.7886,-5981.8745,-5976.9277,-5966.658,-5959.0684,-5971.45,-5972.678,-5967.308,-5974.1626,-5988.164,-5997.553,-6005.113,-6015.73,-6012.834,-6004.2837,-5994.3965,-5984.557,-5981.493,-5980.026,-5982.6045,-5984.7153,-5990.172,-5991.1094,-5979.529,-5969.6943,-5957.512,-5956.5527,-5974.8447,-5987.744,-5993.9497,-6002.0483,-6005.198,-5991.816,-5984.003,-5999.153,-6004.0166,-6004.984,-6008.2485,-5998.538,-5998.165,-5984.579,-5959.617,-5959.824,-5961.013,-5962.5654,-5971.2993,-5971.2876,-5969.0815,-5973.988,-5976.574,-5978.539,-5984.4927,-5974.1143,-5968.4272,-5984.3667,-5999.8516,-6005.7446,-6001.646,-6012.1113,-6031.163,-6040.7676,-6045.5444,-6034.277,-6023.521,-6023.1562,-6011.171,-5985.9204,-5976.2314,-5992.9746,-6000.3823,-5993.5894,-5994.994,-5995.4565,-5988.767,-5985.255,-5986.5815,-5989.4087,-5998.405,-6002.4844,-5987.3774,-5983.715,-5998.162,-5992.931,-5983.2925,-5984.7744,-5977.6035,-5973.05,-5975.9897,-5977.704,-5975.1865,-5976.3647,-5999.022,-6009.3496,-5997.926,-6010.3135,-6032.9126,-6048.663,-6056.565,-6044.1313,-6024.442,-5998.9814,-5987.645,-5997.9536,-5996.304,-5996.363,-5999.376,-5991.191,-5994.878,-6000.2666,-5996.6743,-6000.181,-5993.4697,-5990.896,-6009.028,-5998.702,-5980.461,-5984.2095,-5984.005,-5992.1943,-5996.925,-5990.691,-5984.4634,-5983.495,-5996.944,-5992.9614,-5992.259,-6000.54,-5992.0015,-6001.092,-6005.4946,-5997.9897,-5996.8613,-5995.5723,-5997.9536,-5982.6846,-5971.846,-5981.0693,-5997.5186,-6007.356,-5996.8516,-6002.168,-6009.6323,-6004.133,-6008.4937,-6011.334,-6007.5835,-5998.208,-6000.668,-6009.498,-6001.352,-5992.607,-5998.083,-5997.594,-5975.7666,-5969.8887,-5979.016,-5985.897,-6000.9307,-6002.9673,-6005.679,-6005.873,-5996.401,-6004.1895,-6009.027,-6021.542,-6034.093,-6020.4507,-6022.672,-6034.814,-6032.0933,-6023.486,-6009.945,-6003.988,-5995.482,-5967.97,-5950.8706,-5957.135,-5962.1206,-5972.549,-5998.8374,-6017.9917,-6027.503,-6035.0205,-6035.5396,-6027.0127,-6014.2217,-6001.999,-5987.399,-5981.6274,-5985.336,-5986.3843,-5991.6396,-5992.5415,-5987.9727,-5992.03,-5992.803,-5991.317,-5989.252,-5981.847,-5995.6436,-6012.981,-6010.1074,-6018.062,-6023.9,-6015.205,-6009.469,-6003.0454,-6009.2354,-6025.72,-6023.577,-6006.678,-6011.628,-6033.0293,-6024.221,-6003.3076,-5997.3496,-5994.893,-5997.0566,-5994.612,-5991.673,-5986.9604,-5975.287,-5979.6333,-5985.983,-5991.3545,-6000.087,-5992.8423,-5993.572,-5998.97,-5992.743,-5993.0137,-5995.5337,-6002.565,-6009.3022,-6007.7285,-6011.8945,-6018.7847,-6018.7773,-6013.5986,-6021.872,-6036.819,-6032.1484,-6030.123,-6039.9346,-6040.8477,-6040.185,-6031.0176,-6010.016,-6008.1543,-6011.047,-5998.364,-5992.26,-5992.556,-5993.852,-5996.6436,-6000.534,-6003.0493,-5993.006,-5989.842,-6002.7944,-6007.9443,-6002.6113,-6009.0405,-6016.438,-6003.334,-6002.655,-6009.93,-6006.266,-6012.1113,-6019.663,-6023.0444,-6026.853,-6038.1714,-6036.5234,-6016.6533,-6015.943,-6014.35,-5997.7017,-5982.096,-5981.2183,-5989.995,-5972.4287,-5957.1885,-5967.3687,-5976.2944,-5984.707,-5986.184,-5986.822,-5992.6455,-5997.0723,-6014.929,-6025.201,-6035.013,-6058.2876,-6052.851,-6042.987,-6039.2256,-6025.7305,-6018.622,-6000.4097,-5995.9614,-6005.7,-5998.2925,-5994.358,-5981.348,-5974.3535,-5992.79,-5996.0303,-5988.7983,-5993.1343,-6003.2324,-6017.426,-6024.03,-6025.4375,-6039.3623,-6036.8965,-6015.0435,-6015.29,-6021.5894,-6016.271,-6009.218,-6006.184,-6007.0464,-5997.255,-5993.784,-5999.638,-5994.0254,-5995.99,-6007.789,-6017.102,-6026.183,-6041.4653,-6054.4243,-6035.22,-6014.061,-6017.2324,-6021.8823,-6032.4307,-6035.7524,-6029.3193,-6020.694,-6010.9224,-6022.532,-6026.2397,-6020.88,-6025.763,-6014.651,-6012.3296,-6015.312,-6010.8403,-6018.097,-6012.846,-6012.9844,-6019.2793,-6015.4033,-6025.2524,-6025.24,-6024.867,-6033.5425,-6028.628,-6023.529,-6010.8125,-6006.22,-6022.278,-6028.0806,-6022.6514,-6020.384,-6023.2344,-6018.9136,-6012.7207,-6023.391,-6039.799,-6038.634,-6024.31,-6018.996,-6009.4766,-6003.7095,-6021.7397,-6024.6797,-6017.942,-6026.5923,-6042.3413,-6069.555,-6079.5205,-6066.4927,-6065.635,-6057.5513,-6028.3174,-6007.567,-5996.16,-5985.6797,-5977.2686,-5983.779,-6010.0244,-6005.2183,-5990.0117,-6011.3384,-6021.258,-6017.9653,-6023.065,-6029.203,-6037.924,-6045.04,-6050.2437,-6039.829,-6021.564,-6012.55,-6009.197,-6009.0654,-6002.1816,-5992.7793,-5987.0664,-5993.1226,-6003.9624,-5989.066,-5975.943,-5991.741,-5994.0996,-5984.2188,-5989.652,-5990.3896,-5990.003,-5988.338,-5985.288,-5993.313,-5994.7607,-5996.146,-5998.147,-6003.727,-6012.964,-6007.435,-6007.159,-6011.1475,-6016.0107,-6022.0654,-6020.745,-6027.193,-6029.2754,-6024.7773,-6031.428,-6043.6763,-6052.04,-6057.2563,-6067.594,-6074.5957,-6062.031,-6042.3643,-6040.663,-6044.43,-6040.7764,-6031.49,-6018.5693,-6020.6694,-6018.6797,-6010.742,-6009.3003,-5989.442,-5982.926,-6007.959,-6021.5723,-6018.8315,-6025.7974,-6037.9727,-6029.971,-6025.1377,-6044.4365,-6041.3135,-6027.313,-6036.5645,-6029.8394,-6022.798,-6028.5093,-6022.9307,-6023.1465,-6023.9556,-6024.8896,-6026.4727,-6022.6426,-6022.8145,-6023.862,-6022.8677,-6015.5996,-6008.485,-6007.0947,-6018.432,-6035.8184,-6041.9243,-6046.392,-6048.2017,-6056.0967,-6053.105,-6032.1553,-6041.5015,-6056.63,-6045.454,-6029.8745,-6031.9287,-6034.2993,-6009.5796,-5999.2944,-6004.365,-6000.3306,-6001.5693,-5995.8066,-5997.8984,-6015.588,-6021.017,-6027.103,-6035.7383,-6029.3755,-6024.0615,-6025.978,-6031.844,-6034.786,-6028.783,-6035.95,-6042.1646,-6030.5254,-6027.4355,-6030.6226,-6022.5396,-6009.838,-6006.8623,-6013.27,-6022.8164,-6026.743,-6018.665,-6015.743,-6018.9165,-6019.1274,-6021.0845,-6019.735,-6020.574,-6025.551,-6027.763,-6031.173,-6037.025,-6042.148,-6043.564,-6047.1763,-6041.259,-6029.2354,-6036.065,-6039.8027,-6043.8164,-6057.583,-6047.4795,-6029.2197,-6029.3013,-6029.765,-6018.7925,-6011.9316,-6010.72,-6008.6064,-6012.394,-6014.988,-6020.4126,-6025.2134,-6019.2583,-6016.266,-6014.8887,-6011.4233,-6009.5664,-6011.9272,-6021.2524,-6031.1245,-6032.2397,-6037.67,-6050.879,-6053.008,-6057.8438,-6056.9175,-6052.8,-6059.3833,-6046.2236,-6041.6685,-6051.1064,-6052.5312,-6054.2,-6040.165,-6033.663,-6025.661
-6004.303,-6013.335,-6028.013,-6028.8345,-6037.543,-6044.9424,-6048.8257,-6047.9336,-6036.991,-6037.4316,-6047.575,-6047.9326,-6033.14,-6020.3813,-6031.1055,-6029.7183,-6030.083,-6060.9937,-6067.4277,-6051.073,-6041.2046,-6035.7393,-6028.8633,-6011.4897,-5997.834,-5994.93,-6003.8594,-6015.518,-6016.406,-6022.1562,-6030.1875,-6033.0283,-6041.993,-6045.9087,-6045.207,-6047.8984,-6046.3486,-6050.4204,-6053.418,-6057.4873,-6069.44,-6061.986,-6048.8677,-6046.798,-6043.395,-6046.7285,-6064.016,-6073.648,-6063.2417,-6063.7217,-6065.971,-6054.5024,-6053.453,-6050.56,-6044.866,-6042.5728,-6031.045,-6019.963,-6010.598,-5998.7935,-6001.9873,-6010.605,-6006.4995,-6013.452,-6018.9907,-6009.502,-6004.955,-6012.0674,-6038.365,-6042.3765,-6032.9365,-6046.656,-6042.9624,-6042.659,-6056.4927,-6062.4263,-6067.6187,-6057.229,-6053.1865,-6053.9263,-6042.1733,-6040.975,-6040.638,-6038.9683,-6030.964,-6026.999,-6048.507,-6055.3896,-6060.9756,-6075.1,-6070.3936,-6074.9473,-6067.4272,-6048.2305,-6052.2456,-6054.9316,-6051.67,-6045.3677,-6042.408,-6050.567,-6065.4355,-6073.562,-6070.5757,-6079.4067,-6073.7256,-6063.5117,-6071.342,-6054.151,-6036.484,-6037.5117,-6038.047,-6037.5415,-6027.4844,-6022.5474,-6025.725,-6024.978,-6031.382,-6041.5596,-6031.9053,-6024.765,-6041.8345,-6048.7153,-6053.85,-6072.7856,-6080.2656,-6076.295,-6068.0967,-6060.9976,-6052.7334,-6041.529,-6055.497,-6066.631,-6048.8594,-6054.4243,-6055.5205,-6033.2803,-6031.9893,-6030.99,-6032.849,-6039.0625,-6037.1836,-6043.7114,-6051.05,-6052.48,-6044.088,-6037.172,-6041.789,-6043.1094,-6035.8267,-6031.1924,-6042.985,-6056.6895,-6062.1143,-6065.9106,-6073.7305,-6085.128,-6078.9404,-6061.8003,-6061.1294,-6072.522,-6072.0684,-6059.2524,-6061.83,-6075.6562,-6069.2695,-6060.1626,-6070.9976,-6070.466,-6051.615,-6039.0947,-6046.3433,-6062.553,-6069.934,-6075.392,-6074.454,-6065.5786,-6050.585,-6050.2866,-6064.2114,-6051.7046,-6053.6597,-6066.793,-6056.1553,-6059.638,-6060.227,-6054.9146,-6060.5083,-6058.6387,-6059.233,-6062.5093,-6056.234,-6048.6875,-6046.624,-6044.104,-6047.668,-6052.1274,-6043.4443,-6046.5728,-6054.856,-6046.994,-6043.4805,-6044.8003,-6045.716,-6056.459,-6067.3823,-6065.075,-6068.029,-6077.5327,-6073.975,-6072.1855,-6061.4434,-6047.202,-6069.02,-6094.8184,-6099.9224,-6098.551,-6101.1987,-6103.357,-6088.3555,-6086.3804,-6085.9424,-6062.5933,-6065.3677,-6088.3784,-6086.5664,-6064.6123,-6053.023,-6058.5317,-6060.4785,-6056.3506,-6055.9707,-6052.161,-6041.303,-6036.634,-6036.5386,-6038.8784,-6045.3013,-6052.067,-6055.1094,-6045.149,-6042.238,-6050.358,-6051.5845,-6052.263,-6041.328,-6035.579,-6052.792,-6061.457,-6071.133,-6087.3345,-6097.6113,-6109.0176,-6094.6226,-6071.2456,-6077.1084,-6077.4995,-6063.8135,-6059.701,-6060.6694,-6053.532,-6044.6724,-6063.1743,-6075.437,-6050.5444,-6045.62,-6049.7344,-6039.8164,-6051.5664,-6058.683,-6058.0664,-6070.694,-6073.465,-6064.683,-6053.8745,-6051.892,-6058.9053,-6058.6978,-6059.442,-6068.757,-6067.996,-6073.656,-6096.2314,-6093.362,-6078.327,-6071.8174,-6064.875,-6062.2544,-6051.686,-6044.7534,-6048.07,-6049.489,-6051.1523,-6058.7607,-6064.692,-6053.6587,-6051.942,-6054.859,-6047.6426,-6049.996,-6044.0176,-6043.833,-6058.823,-6057.0474,-6050.17,-6046.6562,-6053.6006,-6070.401,-6073.0166,-6073.102,-6069.4834,-6070.6934,-6091.8843,-6091.656,-6088.0894,-6112.925,-6123.923,-6115.6553,-6115.616,-6116.084,-6095.9165,-6073.885,-6065.662,-6055.227,-6048.3716,-6038.3765,-6029.32,-6035.1636,-6035.3984,-6036.926,-6047.417,-6059.8228,-6069.463,-6069.1465,-6075.726,-6089.349,-6085.6123,-6068.56,-6059.7446,-6052.5464,-6049.3794,-6055.589,-6053.4995,-6057.8516,-6068.109,-6069.024,-6070.7734,-6073.6807,-6074.8843,-6072.53,-6073.373,-6077.845,-6074.56,-6069.515,-6071.0303,-6075.1333,-6081.165,-6088.564,-6092.262,-6094.968,-6093.447,-6093.1045,-6099.5815,-6099.953,-6101.6797,-6105.4116,-6106.952,-6109.1875,-6100.796,-6091.759,-6086.8193,-6082.3193,-6077.046,-6066.1914,-6057.923,-6048.48,-6049.3594,-6054.5024,-6045.5127,-6054.4805,-6073.8066,-6072.5547,-6075.3306,-6084.4165,-6077.2446,-6077.3057,-6081.181,-6068.507,-6060.7456,-6056.572,-6051.437,-6046.216,-6039.7026,-6042.561,-6045.1094,-6043.3916,-6042.8154,-6040.7686,-6058.3857,-6085.3237,-6086.1504,-6100.947,-6116.3945,-6101.7695,-6109.9463,-6108.336,-6092.9097,-6095.8755,-6082.739,-6071.579,-6065.699,-6058.344,-6057.9956,-6060.33,-6065.5034,-6063.925,-6072.23,-6079.479,-6086.698,-6098.081,-6074.788,-6068.1235,-6090.6577,-6083.7974,-6086.2754,-6101.985,-6095.131,-6097.484,-6102.747,-6093.76,-6093.2427,-6103.894,-6110.3286,-6104.41,-6106.556,-6114.5635,-6110.7017,-6103.1113,-6097.811,-6094.6226,-6085.499,-6079.4927,-6076.056,-6077.911,-6105.152,-6119.0005,-6097.438,-6089.8213,-6102.749,-6094.511,-6082.5107,-6082.543,-6074.8813,-6072.164,-6074.194,-6089.948,-6114.569,-6116.707,-6111.2666,-6109.147,-6115.8516,-6118.521,-6095.822,-6095.9595,-6132.1685,-6137.231,-6128.154,-6147.996,-6146.8594,-6126.9897,-6120.9644,-6118.4517,-6108.607,-6090.2373,-6088.574,-6087.702,-6081.27,-6077.7524,-6058.5513,-6054.4404,-6061.3145,-6058.6904,-6063.972,-6068.6396,-6065.366,-6057.958,-6061.526,-6076.9077,-6083.8325,-6086.3813,-6095.168,-6100.3467,-6096.9604,-6096.641,-6093.0303,-6095.637,-6106.711,-6098.5635,-6086.072,-6081.763,-6082.3193,-6086.4585,-6099.082,-6115.587,-6104.9277,-6092.4487,-6091.294,-6085.1055,-6093.538,-6100.8604,-6103.015,-6113.232,-6111.845,-6106.2817,-6103.265,-6101.373,-6107.7847,-6107.544,-6102.9995,-6098.4126,-6095.668,-6101.4673,-6097.8594,-6099.253,-6114.8716,-6112.701,-6101.5586,-6101.146,-6096.4336,-6093.606,-6103.022,-6103.911,-6098.5215,-6095.9824,-6090.696,-6097.6255,-6116.6465,-6125.364,-6131.918,-6150.2446,-6163.3867,-6166.783,-6175.6187,-6175.0244,-6158.19,-6142.1953,-6111.9194,-6092.4385,-6100.6294,-6086.92,-6079.4263,-6084.8975,-6072.3154,-6070.064,-6068.146,-6068.2935,-6072.544,-6073.393,-6085.252,-6087.732,-6093.237,-6096.1753,-6083.4834,-6087.1523,-6092.0576,-6091.615,-6102.1855,-6117.536,-6118.4897,-6103.8506,-6098.6406,-6099.2974,-6099.939,-6102.2725,-6105.0605,-6113.292,-6110.6714,-6097.751,-6092.5527,-6093.186,-6101.9087,-6111.9478,-6108.938,-6108.5396,-6114.1978,-6099.4927,-6103.002,-6157.805,-6174.4854,-6139.083,-6128.907,-6125.5654,-6121.2583,-6134.294,-6135.5767,-6125.693,-6124.029,-6124.1147,-6112.7817,-6098.7354,-6080.546,-6061.4814,-6060.2666,-6055.047,-6058.9917,-6068.7285,-6057.433,-6063.6577,-6069.052,-6067.239,-6080.1494,-6088.737,-6106.5405,-6113.908,-6113.56,-6131.828,-6133.7407,-6125.6777,-6123.69,-6113.851,-6109.1304,-6126.094,-6139.4995,-6125.5146,-6129.104,-6145.2446,-6123.695,-6108.8105,-6126.9595,-6139.848,-6130.27,-6118.2207,-6119.1646,-6113.338,-6113.702,-6120.788,-6118.638,-6117.987,-6106.2334,-6103.4155,-6113.389,-6113.9893,-6109.226,-6100.0874,-6105.2764,-6101.2793,-6091.4497,-6097.487,-6091.7695,-6096.81,-6103.8916,-6109.164,-6127.806,-6129.9424,-6132.635,-6134.495,-6127.027,-6121.254,-6112.0396,-6111.1797,-6105.465,-6103.077,-6113.814,-6107.9536,-6107.4663,-6113.4014,-6103.7466,-6104.982,-6107.5264,-6111.3604,-6127.262,-6122.3623,-6116.2886,-6130.5444,-6140.66,-6147.834,-6168.4897,-6185.552,-6173.9326,-6154.684,-6141.821,-6137.0356,-6138.1714,-6129.5635,-6123.149,-6122.979,-6127.8154,-6134.9526,-6140.891,-6146.366,-6132.322,-6121.4165,-6132.9873,-6135.019,-6131.315,-6138.82,-6133.8926,-6116.445,-6104.399,-6089.328,-6086.9673,-6095.0537,-6097.6606,-6113.54,-6131.1177,-6136.077,-6142.298,-6157.8257,-6165.4575,-6155.91,-6146.302,-6141.159,-6139.1924,-6130.0933,-6122.213,-6129.2827,-6131.1353,-6126.2866,-6125.843,-6127.954,-6130.327,-6137.2827,-6141.5596,-6134.8413,-6129.568,-6117.0894,-6101.5796,-6105.676,-6101.6445,-6091.3965,-6109.4326,-6118.8706,-6113.693,-6125.6543,-6127.2974,-6128.3647,-6142.052,-6139.9976,-6138.3037,-6140.727,-6138.29,-6137.3647,-6129.4775,-6122.3984,-6121.361,-6116.785,-6104.743,-6098.2437,-6103.3477,-6103.6606,-6105.931,-6112.2217,-6114.7803,-6113.1074,-6106.956,-6104.199,-6096.8486,-6097.418,-6108.278,-6109.798,-6124.3066,-6144.8247,-6148.724,-6151.2905,-6153.851,-6146.7085,-6150.8438,-6163.6665,-6148.902,-6134.3066,-6125.294,-6117.213,-6143.943,-6157.6284,-6149.043,-6149.841,-6147.476,-6148.671,-6142.0986,-6125.2812,-6109.57,-6100.1265,-6101.456,-6102.8677,-6111.4727,-6122.419,-6120.953,-6121.502,-6133.6514,-6142.5337,-6136.9087,-6125.342,-6117.575,-6108.389,-6099.041,-6101.958,-6107.0894,-6111.379,-6116.3716,-6111.4346,-6107.2944,-6103.77,-6096.2524,-6095.4487,-6099.463,-6098.363,-6096.816,-6098.582,-6096.5757,-6101.5503,-6103.3203,-6105.551,-6134.861,-6158.6494,-6161.875,-6157.5264,-6138.456,-6119.2314,-6129.2573,-6150.6943,-6138.497,-6131.121,-6149.0293,-6151.8457,-6160.4966,-6157.465,-6136.527,-6133.0933,-6117.555,-6110.481,-6115.1646,-6105.0283,-6099.5215,-6088.971,-6088.3896,-6090.6704,-6084.8315,-6094.451,-6098.991,-6095.085,-6086.4814,-6089.461,-6108.0728,-6107.4214,-6110.2173,-6116.59,-6110.9644,-6120.5264,-6130.3916,-6135.374,-6142.926,-6146.498,-6157.7656,-6160.1733,-6148.064,-6139.22,-6132.656,-6126.98,-6116.8945,-6110.701,-6114.4,-6115.7686,-6115.604,-6131.297,-6153.1484,-6139.7983,-6119.6973,-6123.6772,-6122.1094,-6121.1533,-6118.669,-6111.7466,-6112.659,-6106.312,-6097.204,-6105.5747,-6128.8784,-6136.677,-6136.936,-6141.5664,-6137.168,-6147.8633,-6149.2725,-6146.073,-6166.2163,-6156.607,-6144.265,-6149.327,-6140.666,-6143.5757,-6153.7886,-6165.134,-6164.7183,-6143.7646,-6137.2227,-6135.723,-6131.6025,-6126.836,-6116.0654,-6111.9697,-6102.3813,-6095.604,-6098.3823,-6114.7354,-6150.3643,-6150.868,-6142.374,-6156.0425,-6141.0166,-6129.616,-6126.641,-6108.0054,-6099.925,-6092.9927,-6092.7754,-6098.296,-6102.863,-6114.398,-6118.94,-6123.5186,-6123.704,-6129.57,-6158.175,-6169.0786,-6162.7603,-6168.522,-6170.163,-6170.5693,-6172.0605,-6160.273,-6157.8057,-6156.478,-6150.7573,-6155.0635,-6143.6436,-6133.7563,-6131.7373,-6124.5293,-6131.1157,-6135.1367,-6130.517,-6131.56,-6136.97,-6136.724,-6133.941,-6129.465,-6113.891,-6104.999,-6106.6025,-6119.7456,-6129.865,-6129.554,-6144.605,-6147.588,-6142.829,-6162.597,-6199.9717,-6226.1226,-6215.2476,-6210.9873,-6209.1533,-6191.527,-6192.2275,-6174.7207,-6135.183,-6100.9644,-6073.5127,-6082.525,-6094.3574,-6087.8643,-6105.1025,-6119.9897,-6120.86,-6135.362,-6150.1997,-6162.1743,-6175.926,-6179.765,-6166.364,-6142.999,-6134.647,-6150.355,-6154.975,-6150.273,-6174.998,-6195.6357,-6198.0625,-6203.7637,-6193.0933,-6174.4233,-6170.6587,-6166.7656,-6140.6953,-6131.141,-6137.7593,-6120.415,-6120.484,-6121.078,-6111.556,-6119.085,-6117.88,-6128.762,-6131.1997,-6118.426,-6128.2505,-6124.112,-6117.8574,-6118.639,-6109.407,-6116.47,-6116.1855,-6112.034,-6121.4155,-6116.5015,-6124.7056,-6143.7236,-6143.0195,-6136.379,-6128.2935,-6125.739,-6122.3843,-6119.869,-6125.4214,-6129.247,-6143.6943,-6153.611,-6148.975,-6150.238,-6146.6284,-6135.9375,-6129.923,-6129.3076,-6128.817,-6116.0386,-6109.4536,-6128.986,-6139.813,-6123.9326,-6112.4966,-6116.722,-6137.0024,-6173.001,-6193.4673,-6198.6367,-6202.2715,-6181.8013,-6158.6987,-6166.7905,-6174.413,-6146.645,-6126.7656,-6131.718,-6111.092,-6103.4575,-6114.5054,-6113.803,-6130.204,-6124.047,-6111.778,-6110.2075,-6096.1187,-6108.436,-6110.698,-6108.63,-6120.7773,-6109.228,-6098.927,-6097.0884,-6118.725,-6146.2886,-6153.5483,-6175.4824,-6182.9907,-6162.9233,-6147.306,-6154.8887,-6174.358,-6159.3955,-6140.97,-6134.6914,-6116.0903,-6117.6274,-6126.3765,-6128.0767,-6127.0957,-6110.2964,-6102.473,-6109.979,-6120.3706,-6126.26,-6132.376,-6135.421,-6124.959,-6128.2134,-6127.5356,-6123.5054,-6133.852,-6129.474,-6132.81,-6137.9653,-6135.4688,-6139.6016,-6131.8394,-6125.0386,-6120.4795,-6124.105,-6136.0117,-6141.7456,-6150.619,-6155.671,-6167.9683,-6180.047,-6177.6035,-6176.732,-6175.6245,-6172.6187,-6169.203,-6162.1665,-6145.2954,-6144.9795,-6154.5146,-6137.7197,-6128.516,-6119.132,-6103.567,-6100.296,-6089.9478,-6090.6904,-6094.212,-6088.6553,-6086.6553,-6104.915,-6138.0923,-6121.2065,-6101.2827,-6121.4595,-6115.752,-6111.837,-6121.4746,-6124.722,-6153.4683,-6174.067,-6171.3364,-6167.6914,-6159.241,-6154.9067,-6142.621,-6129.7,-6128.375,-6126.689,-6125.4883,-6120.305,-6118.3755,-6114.0493,-6114.636,-6125.472,-6122.894,-6117.8486,-6114.668,-6124.1606,-6136.2183,-6128.5796,-6133.719,-6141.978,-6136.66,-6135.452,-6138.562,-6136.8955,-6129.178,-6125.5522,-6122.7764,-6127.947,-6131.3335,-6133.1196,-6165.6455,-6174.108,-6145.8013,-6146.5557,-6143.0728,-6125.646,-6124.618,-6118.8125,-6116.6562,-6114.051,-6114.089,-6122.297,-6121.756,-6138.4033,-6149.404,-6148.0747,-6154.5703,-6149.3574,-6151.364,-6150.752,-6145.377,-6155.2393,-6157.696,-6152.389,-6143.892,-6127.4106,-6115.9707
-6119.308,-6134.6587,-6147.5586,-6146.329,-6147.449,-6152.5776,-6147.9434,-6138.8003,-6126.662,-6119.9985,-6116.7446,-6115.9746,-6119.661,-6115.5884,-6113.565,-6112.825,-6112.9014,-6125.314,-6137.6826,-6139.2236,-6139.6523,-6137.0415,-6130.8955,-6138.4463,-6136.422,-6126.3667,-6140.711,-6169.6367,-6198.2017,-6198.8076,-6179.4004,-6167.0894,-6151.815,-6140.263,-6127.389,-6112.9824,-6120.787,-6131.775,-6132.2637,-6138.5566,-6135.1978,-6114.837,-6110.2393,-6129.678,-6128.665,-6102.0957,-6096.4097,-6101.2686,-6101.011,-6101.3994,-6103.5566,-6118.398,-6124.7466,-6121.707,-6122.3794,-6123.2593,-6135.4854,-6149.0547,-6152.0176,-6147.3726,-6140.0938,-6128.4717,-6116.1743,-6114.0234,-6117.7173,-6125.924,-6135.703,-6145.203,-6148.805,-6159.5703,-6172.963,-6160.5234,-6158.247,-6170.6875,-6179.1763,-6175.847,-6152.9233,-6152.375,-6150.8545,-6132.8447,-6139.28,-6152.386,-6157.051,-6147.254,-6124.418,-6107.768,-6101.9043,-6104.858,-6103.913,-6104.797,-6111.816,-6114.297,-6118.131,-6116.831,-6115.3345,-6118.1333,-6112.698,-6109.0977,-6112.553,-6125.146,-6138.234,-6143.502,-6149.784,-6147.3237,-6133.3184,-6119.878,-6126.157,-6137.0854,-6119.6787,-6102.1094,-6106.2427,-6123.443,-6137.8403,-6139.459,-6138.8477,-6134.877,-6134.2505,-6124.9097,-6104.524,-6096.215,-6091.8228,-6099.4795,-6109.3794,-6109.8604,-6111.4883,-6107.615,-6115.041,-6122.4746,-6116.565,-6114.683,-6108.5103,-6103.7974,-6107.113,-6109.831,-6120.0815,-6135.393,-6134.6924,-6127.652,-6135.6304,-6139.257,-6131.525,-6129.975,-6117.321,-6101.062,-6117.1255,-6136.5425,-6142.5615,-6146.5713,-6148.1743,-6159.155,-6158.166,-6153.8496,-6166.041,-6175.1353,-6177.674,-6169.982,-6162.13,-6146.298,-6131.9346,-6141.221,-6145.249,-6148.0903,-6146.4165,-6139.7305,-6134.129,-6111.253,-6102.7017,-6098.827,-6092.6924,-6102.24,-6097.187,-6095.633,-6096.756,-6091.5293,-6095.4985,-6090.2437,-6088.546,-6092.1113,-6101.39,-6120.799,-6130.883,-6143.702,-6161.9795,-6172.4517,-6163.7437,-6161.0186,-6174.5513,-6163.547,-6151.789,-6141.5474,-6119.747,-6119.0527,-6121.532,-6122.208,-6132.973,-6138.0825,-6122.1934,-6103.151,-6109.586,-6107.6216,-6101.9116,-6123.37,-6139.9043,-6134.774,-6127.7183,-6136.2563,-6137.796,-6136.2964,-6144.3306,-6137.3027,-6133.8765,-6133.3994,-6130.994,-6127.7866,-6119.0464,-6129.9263,-6137.486,-6138.3916,-6139.607,-6141.2554,-6169.274,-6181.0464,-6166.879,-6169.722,-6175.1807,-6161.769,-6157.444,-6178.856,-6188.5015,-6179.9404,-6179.9077,-6179.337,-6152.169,-6123.2344,-6122.0117,-6118.481,-6110.329,-6115.545,-6117.0713,-6112.158,-6112.4497,-6114.4077,-6109.873,-6105.0195,-6114.6978,-6124.874,-6129.9097,-6139.7065,-6134.6885,-6132.462,-6143.364,-6146.4976,-6149.335,-6140.436,-6132.0605,-6137.67,-6148.6597,-6170.973,-6177.2056,-6172.095,-6174.109,-6168.516,-6160.724,-6149.625,-6136.1,-6129.247,-6133.498,-6136.416,-6119.202,-6111.072,-6123.937,-6126.2915,-6130.509,-6145.9624,-6145.244,-6137.6284,-6129.686,-6120.678,-6117.4194,-6111.136,-6126.5176,-6142.0493,-6124.743,-6123.9624,-6134.0054,-6140.4653,-6163.23,-6168.4243,-6172.6167,-6198.715,-6202.018,-6193.22,-6185.3364,-6164.113,-6145.507,-6133.9204,-6129.973,-6131.816,-6136.8,-6134.7686,-6121.99,-6130.44,-6150.093,-6157.818,-6163.7803,-6163.2905,-6152.603,-6136.274,-6123.8706,-6109.643,-6087.642,-6090.6885,-6112.0547,-6117.6343,-6124.1104,-6132.438,-6131.126,-6140.6978,-6150.5293,-6143.413,-6139.026,-6148.5728,-6151.299,-6138.6587,-6133.0825,-6126.875,-6124.1294,-6132.1885,-6126.9,-6126.945,-6131.7314,-6137.734,-6159.578,-6169.94,-6173.875,-6180.8813,-6170.2183,-6156.022,-6163.7114,-6173.1807,-6170.8306,-6175.45,-6173.318,-6165.329,-6171.7676,-6177.547,-6174.827,-6173.564,-6171.935,-6168.646,-6173.6587,-6173.82,-6166.524,-6173.6904,-6176.729,-6162.1924,-6155.1997,-6157.6763,-6159.193,-6162.932,-6160.9624,-6159.8853,-6158.0293,-6144.71,-6153.1885,-6177.5195,-6201.7305,-6216.6113,-6196.6597,-6190.6245,-6185.457,-6153.569,-6154.4893,-6161.084,-6154.9053,-6148.6597,-6127.6284,-6117.1724,-6106.741,-6096.778,-6100.0703,-6093.253,-6094.7163,-6108.174,-6113.708,-6116.1577,-6124.221,-6138.463,-6139.7646,-6127.1646,-6124.4917,-6130.8813,-6131.2104,-6121.9517,-6118.117,-6143.796,-6159.1016,-6140.163,-6147.653,-6160.9863,-6157.639,-6163.6187,-6150.65,-6138.0547,-6137.998,-6133.9805,-6141.732,-6149.597,-6156.061,-6155.337,-6146.4443,-6152.9346,-6158.511,-6153.624,-6156.3135,-6169.343,-6175.991,-6169.036,-6162.239,-6147.4395,-6129.1626,-6131.608,-6133.833,-6136.6025,-6145.161,-6131.758,-6127.168,-6134.831,-6143.4883,-6179.19,-6186.0366,-6162.1064,-6165.612,-6164.5405,-6156.125,-6159.2153,-6159.468,-6159.8203,-6158.9233,-6163.5737,-6169.8174,-6163.7935,-6168.1816,-6178.4756,-6179.1875,-6179.665,-6166.3843,-6153.428,-6146.665,-6125.275,-6120.528,-6131.5566,-6134.9067,-6145.562,-6159.663,-6164.8965,-6165.931,-6178.52,-6187.0264,-6174.8076,-6176.976,-6187.6235,-6179.738,-6167.854,-6153.468,-6145.919,-6150.9346,-6141.9116,-6125.371,-6131.3364,-6148.537,-6147.6255,-6139.3833,-6141.9854,-6146.2456,-6146.718,-6152.8706,-6165.669,-6175.0776,-6183.8613,-6187.2275,-6197.4,-6219.29,-6217.2847,-6211.913,-6216.095,-6212.7983,-6207.021,-6189.478,-6169.1836,-6140.1943,-6116.559,-6116.657,-6113.3184,-6118.888,-6125.5205,-6123.515,-6123.4604,-6120.6294,-6122.1836,-6115.141,-6110.8384,-6120.236,-6123.52,-6122.661,-6138.4067,-6160.372,-6159.7983,-6169.5186,-6187.6343,-6201.6587,-6219.1274,-6206.7153,-6199.9126,-6209.938,-6218.443,-6222.974,-6192.779,-6164.26,-6146.689,-6139.464,-6152.4907,-6142.722,-6130.201,-6124.8994,-6112.1475,-6110.037,-6113.66,-6115.645,-6116.683,-6126.8696,-6138.876,-6140.745,-6143.191,-6145.088,-6147.383,-6144.7344,-6134.5854,-6131.3525,-6127.4897,-6121.6235,-6123.7983,-6123.6543,-6127.502,-6139.406,-6135.3027,-6131.9404,-6147.7495,-6159.8257,-6170.2227,-6180.186,-6187.095,-6195.2075,-6192.247,-6191.0503,-6190.6187,-6178.263,-6176.441,-6178.8784,-6171.709,-6174.013,-6178.8315,-6170.9565,-6167.407,-6161.906,-6143.2275,-6124.8975,-6115.992,-6133.3247,-6152.265,-6149.353,-6149.5547,-6144.4414,-6139.721,-6151.289,-6157.745,-6158.5493,-6162.446,-6164.2397,-6169.9106,-6180.965,-6179.6113,-6172.6284,-6173.39,-6170.7173,-6161.8228,-6152.818,-6156.0547,-6169.3643,-6171.3335,-6169.5825,-6186.8394,-6199.6797,-6196.192,-6216.021,-6234.2334,-6223.095,-6209.1665,-6187.894,-6169.5503,-6165.4883,-6172.9863,-6174.806,-6164.4863,-6172.2607,-6162.84,-6152.3394,-6177.044,-6175.4585,-6167.215,-6168.361,-6154.7993,-6160.9673,-6165.893,-6151.168,-6151.388,-6159.68,-6157.2524,-6152.1665,-6154.0435,-6164.5063,-6177.282,-6185.4873,-6191.1343,-6192.559,-6189.2046,-6190.345,-6203.432,-6208.3657,-6195.2646,-6194.901,-6199.376,-6199.88,-6207.592,-6218.053,-6232.5796,-6223.0576,-6203.0825,-6202.063,-6214.536,-6245.4014,-6232.9766,-6178.1943,-6167.6587,-6174.6685,-6157.607,-6156.329,-6175.05,-6170.929,-6163.479,-6164.802,-6152.9795,-6149.4517,-6152.837,-6156.396,-6156.375,-6159.5537,-6173.4844,-6169.1167,-6167.7725,-6165.7803,-6159.2026,-6177.734,-6198.038,-6215.823,-6218.147,-6219.48,-6236.2944,-6232.2197,-6223.7065,-6213.64,-6201.2603,-6192.366,-6177.858,-6176.1016,-6172.0728,-6165.4976,-6171.8833,-6179.6997,-6175.856,-6162.9023,-6166.0376,-6170.261,-6175.124,-6191.4688,-6199.019,-6200.278,-6186.8667,-6174.4614,-6177.7476,-6174.709,-6175.083,-6177.612,-6170.197,-6174.85,-6209.2144,-6241.1606,-6240.7383,-6235.2476,-6227.396,-6213.546,-6211.1953,-6199.6333,-6194.5054,-6202.731,-6207.844,-6226.1562,-6220.179,-6193.6914,-6182.1167,-6171.9526,-6170.6753,-6165.2524,-6149.264,-6149.1494,-6170.6074,-6190.7505,-6202.2637,-6214.3,-6207.1094,-6192.1777,-6196.544,-6203.412,-6193.1064,-6185.7964,-6193.1655,-6184.77,-6174.258,-6181.562,-6180.01,-6165.4834,-6155.2485,-6152.2026,-6148.3193,-6143.3315,-6145.986,-6149.1543,-6144.21,-6151.195,-6162.2363,-6163.143,-6165.7305,-6162.117,-6165.058,-6170.781,-6171.592,-6180.109,-6173.8345,-6165.5264,-6166.0645,-6169.6094,-6182.4277,-6181.977,-6178.579,-6185.7935,-6191.869,-6188.3223,-6172.8994,-6166.3623,-6164.475,-6162.7314,-6168.6133,-6172.405,-6185.911,-6198.3516,-6188.7837,-6190.3003,-6205.5776,-6201.784,-6196.078,-6207.575,-6215.8794,-6207.4346,-6190.659,-6175.1514,-6174.2417,-6180.268,-6174.2554,-6175.05,-6174.867,-6162.216,-6162.294,-6170.2324,-6176.2715,-6179.5244,-6179.133,-6180.091,-6178.8154,-6167.824,-6155.92,-6154.3955,-6154.8647,-6158.7983,-6166.198,-6180.4585,-6209.019,-6222.6523,-6208.259,-6199.318,-6197.9644,-6172.8384,-6154.42,-6166.6245,-6177.334,-6186.96,-6183.5063,-6169.4077,-6175.9346,-6184.4136,-6185.3438,-6172.563,-6165.775,-6186.681,-6180.986,-6182.8403,-6217.729,-6196.661,-6170.609,-6186.99,-6175.576,-6171.9634,-6184.444,-6168.6216,-6165.855,-6172.697,-6164.9478,-6166.342,-6177.526,-6190.702,-6201.1797,-6193.4844,-6180.1914,-6178.792,-6177.0864,-6178.0024,-6177.2524,-6175.2915,-6179.8594,-6175.7593,-6173.794,-6168.829,-6170.91,-6189.9497,-6186.6294,-6183.6104,-6183.346,-6173.8994,-6187.15,-6192.7207,-6179.889,-6173.161,-6172.7095,-6178.254,-6180.4683,-6181.9766,-6176.4087,-6169.094,-6183.5977,-6189.1846,-6187.5273,-6201.9097,-6202.031,-6202.754,-6208.1787,-6196.1665,-6184.9224,-6176.3667,-6177.373,-6177.0195,-6163.189,-6155.538,-6158.7305,-6171.2188,-6161.167,-6143.4043,-6152.765,-6151.5444,-6151.738,-6166.7676,-6173.7417,-6191.513,-6213.1826,-6217.442,-6216.866,-6220.0947,-6211.4966,-6196.014,-6187.646,-6179.116,-6176.3945,-6169.269,-6171.357,-6189.6245,-6184.0425,-6175.947,-6192.691,-6211.1,-6193.4272,-6172.9087,-6181.9336,-6171.315,-6173.5933,-6180.866,-6155.6157,-6147.5234,-6145.0225,-6151.2305,-6165.7817,-6170.095,-6185.801,-6193.1465,-6196.0283,-6200.8804,-6201.4824,-6204.297,-6200.1235,-6207.3267,-6200.896,-6178.022,-6186.714,-6190.1562,-6172.5254,-6159.669,-6161.7065,-6173.567,-6175.878,-6188.7695,-6196.5483,-6188.871,-6195.7485,-6197.1777,-6190.6504,-6183.0503,-6169.112,-6153.8086,-6144.9893,-6156.586,-6171.418,-6176.4644,-6186.4863,-6215.758,-6232.782,-6212.3633,-6205.22,-6203.2827,-6196.6934,-6210.7607,-6204.14,-6192.1187,-6186.4297,-6172.731,-6175.217,-6168.0566,-6164.4136,-6175.06,-6173.4365,-6171.465,-6164.945,-6167.353,-6173.824,-6166.657,-6169.365,-6178.9883,-6183.016,-6181.8555,-6172.0854,-6166.656,-6182.869,-6197.108,-6201.3545,-6205.038,-6193.5586,-6185.4717,-6194.282,-6220.8296,-6241.9067,-6228.79,-6214.0195,-6199.7476,-6188.662,-6177.6187,-6147.7754,-6140.882,-6135.0537,-6126.954,-6154.9224,-6172.772,-6185.281,-6197.3867,-6189.1274,-6187.2124,-6182.0,-6175.9307,-6173.4004,-6169.463,-6175.9863,-6178.627,-6178.3267,-6168.712,-6153.7793,-6158.552,-6164.5425,-6158.9795,-6157.308,-6166.805,-6168.361,-6171.2085,-6184.555,-6179.879,-6173.9097,-6173.02,-6172.4204,-6170.7373,-6163.1055,-6181.2095,-6202.161,-6210.8047,-6216.304,-6202.775,-6197.744,-6198.8833,-6197.7075,-6200.152,-6191.863,-6187.119,-6176.884,-6159.01,-6158.696,-6171.223,-6182.7,-6172.1284,-6160.7407,-6169.633,-6169.786,-6172.761,-6180.7163,-6188.636,-6197.032,-6192.738,-6205.819,-6209.078,-6196.2256,-6210.8096,-6214.077,-6204.0205,-6193.3354,-6187.4136,-6201.4736,-6202.8354,-6201.0786,-6200.3467,-6185.1675,-6182.01,-6177.4106,-6158.7886,-6160.441,-6168.238,-6159.019,-6160.0396,-6162.501,-6162.7954,-6179.4434,-6187.7393,-6189.3286,-6192.1016,-6185.963,-6185.1777,-6192.194,-6210.3936,-6222.5547,-6211.732,-6216.0186,-6216.283,-6200.097,-6203.6396,-6199.291,-6185.9854,-6177.5786,-6178.4575,-6194.4126,-6188.2695,-6185.2974,-6200.886,-6195.482,-6190.407,-6186.592,-6181.958,-6207.2017,-6225.2695,-6227.2144,-6240.2124,-6226.9805,-6204.1797,-6197.5522,-6189.5967,-6214.564,-6237.3115,-6215.3457,-6201.866,-6204.6157,-6199.938,-6185.689,-6181.844,-6184.936,-6178.682,-6176.58,-6160.6567,-6150.3267,-6160.321,-6156.272,-6156.6704,-6161.96,-6157.865,-6155.801,-6158.528,-6166.7627,-6168.178,-6167.9233,-6172.6465,-6176.187,-6200.649,-6219.6064,-6202.9097,-6201.0884,-6206.1216,-6202.6177,-6218.123,-6222.4756,-6222.037,-6217.948,-6197.3066,-6199.0273,-6194.566,-6173.063,-6168.1294,-6172.5596,-6174.4834,-6167.0933,-6172.0063,-6180.6187,-6180.894,-6197.4507,-6217.7495,-6226.0254,-6220.011,-6207.592,-6194.881,-6186.325,-6183.959,-6176.7793,-6171.1855,-6161.7925,-6153.699,-6155.4385,-6161.4453,-6168.88,-6167.2925,-6182.972,-6203.057,-6200.348,-6203.682,-6203.3965,-6192.628,-6184.1216,-6186.5283,-6191.0425,-6177.2563,-6177.07,-6183.02,-6177.8154,-6184.967,-6183.439,-6180.84,-6189.036,-6185.766,-6189.214,-6198.16,-6187.364,-6171.206,-6170.6323,-6183.057,-6191.9434,-6182.7075,-6173.948,-6177.2603,-6170.4263,-6170.2964,-6182.349,-6187.016,-6191.9385,-6186.692,-6189.2427,-6205.87,-6202.106,-6201.014,-6208.879,-6205.783,-6204.4985,-6204.507,-6197.1553
-6181.3174,-6174.4604,-6180.769,-6176.861,-6173.268,-6168.203,-6171.7075,-6196.4243,-6195.9497,-6199.665,-6214.4297,-6210.323,-6218.841,-6206.7905,-6196.63,-6213.7036,-6205.6943,-6187.2495,-6178.726,-6191.215,-6200.551,-6193.7246,-6194.216,-6187.256,-6181.196,-6170.1084,-6159.8237,-6172.3228,-6177.0923,-6164.9155,-6163.122,-6180.8813,-6188.426,-6200.178,-6236.0845,-6245.1626,-6224.678,-6198.0107,-6169.6416,-6147.6436,-6132.0635,-6142.9023,-6152.033,-6147.2583,-6166.899,-6172.5845,-6169.627,-6180.7324,-6177.995,-6180.183,-6181.1816,-6181.917,-6187.164,-6181.7715,-6190.861,-6196.7285,-6182.676,-6176.7485,-6178.647,-6182.898,-6186.741,-6186.1216,-6194.49,-6205.8477,-6208.292,-6216.062,-6238.0366,-6266.6157,-6276.796,-6271.695,-6266.077,-6249.347,-6233.07,-6217.8647,-6186.847,-6146.0205,-6124.96,-6125.886,-6123.3765,-6126.724,-6131.934,-6133.7476,-6145.7007,-6159.7705,-6165.794,-6160.6934,-6157.949,-6159.634,-6156.049,-6162.0137,-6178.417,-6174.846,-6162.4966,-6169.315,-6170.397,-6174.3164,-6185.3887,-6185.8,-6195.722,-6195.8013,-6196.144,-6211.9517,-6207.2515,-6198.944,-6195.234,-6183.854,-6177.9497,-6177.203,-6174.5146,-6172.239,-6174.0815,-6180.763,-6188.654,-6191.99,-6193.1577,-6184.829,-6167.483,-6164.5786,-6174.0713,-6173.168,-6167.7456,-6166.5693,-6161.1094,-6168.775,-6177.521,-6164.6626,-6162.7515,-6175.874,-6181.4424,-6177.1167,-6177.7188,-6187.1465,-6186.31,-6182.4834,-6182.983,-6180.553,-6177.2363,-6173.058,-6178.2383,-6184.6484,-6187.7314,-6201.3203,-6202.1064,-6194.9453,-6200.88,-6211.4673,-6219.3994,-6209.0806,-6196.8677,-6194.4033,-6193.7817,-6195.9404,-6189.596,-6189.6484,-6197.43,-6206.697,-6222.726,-6220.394,-6200.956,-6195.0254,-6199.81,-6187.067,-6174.7603,-6170.283,-6154.5864,-6150.345,-6145.203,-6140.229,-6145.8,-6143.243,-6145.084,-6144.469,-6145.569,-6153.3027,-6167.287,-6182.7236,-6177.697,-6185.938,-6198.2817,-6187.1704,-6179.7573,-6187.3823,-6204.8657,-6204.9404,-6200.685,-6204.7573,-6194.457,-6185.0312,-6174.9224,-6173.5684,-6175.1113,-6157.282,-6163.1846,-6184.196,-6196.1147,-6213.807,-6226.475,-6237.761,-6251.3545,-6254.0815,-6226.8105,-6200.584,-6203.1177,-6189.6587,-6180.9463,-6183.6816,-6169.2783,-6165.719,-6158.1245,-6147.8184,-6152.0635,-6154.905,-6156.616,-6153.516,-6157.6826,-6171.7236,-6177.669,-6173.513,-6174.2417,-6183.425,-6187.3047,-6191.9526,-6179.795,-6174.1094,-6208.057,-6214.5264,-6203.139,-6214.634,-6215.5967,-6210.92,-6198.722,-6186.0776,-6195.4995,-6202.605,-6210.5366,-6221.671,-6221.5356,-6232.2744,-6243.7646,-6229.823,-6210.9233,-6198.6313,-6179.38,-6167.7686,-6176.563,-6172.0254,-6164.1006,-6171.184,-6158.689,-6151.4155,-6156.2695,-6153.244,-6159.713,-6153.1797,-6158.2495,-6197.4453,-6215.8057,-6205.658,-6204.4453,-6218.018,-6222.2646,-6219.094,-6208.27,-6198.711,-6200.927,-6186.9917,-6180.883,-6193.033,-6197.6514,-6201.265,-6204.108,-6210.8706,-6211.1714,-6209.585,-6219.479,-6220.6533,-6215.41,-6201.6465,-6189.053,-6190.32,-6190.4766,-6203.262,-6214.9927,-6216.51,-6224.889,-6222.88,-6229.079,-6238.4053,-6244.2363,-6268.0,-6265.8164,-6255.8027,-6246.9214,-6221.5435,-6221.4473,-6211.37,-6191.948,-6199.3813,-6220.5835,-6247.7935,-6254.3477,-6245.8564,-6233.7207,-6226.1387,-6233.05,-6229.156,-6213.258,-6202.1353,-6209.425,-6233.0464,-6244.358,-6239.014,-6230.2266,-6204.585,-6174.929,-6169.548,-6163.918,-6152.8423,-6147.113,-6140.9053,-6143.136,-6148.155,-6156.1016,-6168.5596,-6178.072,-6183.8633,-6176.9644,-6178.381,-6191.826,-6183.49,-6176.961,-6180.627,-6171.064,-6173.719,-6178.0127,-6174.146,-6184.0312,-6190.006,-6199.1743,-6209.2114,-6207.7646,-6216.409,-6220.8584,-6215.2944,-6213.3457,-6202.6787,-6192.6504,-6197.652,-6203.1797,-6218.632,-6251.5073,-6254.822,-6227.8936,-6226.1455,-6229.9795,-6220.248,-6225.957,-6230.0513,-6230.981,-6229.763,-6215.5,-6219.5176,-6238.5625,-6246.5317,-6243.3887,-6238.5273,-6231.712,-6219.126,-6200.3105,-6175.437,-6161.105,-6152.4507,-6150.4443,-6156.4785,-6159.2314,-6175.8267,-6185.084,-6181.0806,-6181.345,-6181.5054,-6193.1826,-6200.793,-6212.553,-6240.8853,-6256.057,-6251.48,-6239.173,-6230.918,-6211.5566,-6191.7983,-6192.6553,-6190.0063,-6196.7666,-6206.958,-6201.615,-6213.9985,-6220.9233,-6205.785,-6199.028,-6194.7065,-6200.606,-6209.949,-6207.6943,-6212.91,-6222.8086,-6223.4395,-6218.009,-6220.3228,-6225.0107,-6232.942,-6247.5264,-6262.1763,-6270.615,-6245.3154,-6227.796,-6236.545,-6226.6494,-6225.979,-6241.4414,-6253.7266,-6246.63,-6235.0874,-6247.823,-6234.0664,-6206.1465,-6198.2007,-6195.0273,-6206.0713,-6208.8867,-6199.895,-6192.128,-6186.5747,-6195.687,-6195.496,-6183.175,-6183.3677,-6188.2524,-6192.76,-6197.3105,-6197.3364,-6199.6465,-6201.792,-6202.9946,-6212.195,-6220.0977,-6223.557,-6232.909,-6248.9653,-6257.8354,-6254.258,-6255.918,-6261.603,-6262.4517,-6269.238,-6265.846,-6253.8945,-6269.7617,-6281.3853,-6279.526,-6280.124,-6270.931,-6278.8413,-6259.8926,-6224.482,-6213.8696,-6185.795,-6186.633,-6189.7144,-6183.2617,-6200.195,-6196.27,-6214.437,-6229.4824,-6225.817,-6231.7017,-6221.363,-6222.0986,-6213.84,-6210.9106,-6219.535,-6207.188,-6212.2344,-6218.9053,-6222.5493,-6234.6855,-6239.8613,-6248.042,-6251.157,-6249.2964,-6252.4746,-6257.3223,-6260.334,-6263.0947,-6262.345,-6253.103,-6251.296,-6251.172,-6233.0996,-6219.8184,-6218.1943,-6206.753,-6204.2124,-6213.173,-6215.186,-6223.9287,-6232.243,-6234.5693,-6237.4014,-6230.6924,-6232.88,-6257.2266,-6266.363,-6253.7964,-6253.8823,-6249.1753,-6241.0757,-6254.0635,-6255.914,-6250.0757,-6262.8633,-6287.725,-6302.599,-6299.3096,-6301.1367,-6308.026,-6312.299,-6303.9805,-6286.758,-6288.449,-6287.0103,-6271.2227,-6268.5654,-6261.565,-6236.952,-6230.8057,-6233.929,-6220.007,-6217.1567,-6220.2476,-6218.41,-6218.8867,-6208.4355,-6208.2324,-6207.712,-6188.1104,-6189.1416,-6213.6016,-6240.5356,-6250.7627,-6250.159,-6259.485,-6262.2915,-6264.89,-6271.065,-6274.89,-6276.9604,-6267.337,-6258.592,-6242.0903,-6221.829,-6215.873,-6209.533,-6214.0303,-6228.5864,-6240.6685,-6248.9,-6243.04,-6239.614,-6244.181,-6243.311,-6248.4946,-6264.9272,-6277.071,-6279.6807,-6265.112,-6241.591,-6247.77,-6258.1606,-6242.6875,-6237.728,-6246.101,-6252.3955,-6252.5005,-6248.7026,-6250.5806,-6246.898,-6236.819,-6224.3057,-6215.9795,-6224.986,-6233.8833,-6226.2017,-6222.963,-6248.8975,-6274.2285,-6274.494,-6270.645,-6261.1133,-6249.7354,-6237.329,-6221.4253,-6222.1147,-6225.9844,-6232.098,-6258.6807,-6286.153,-6297.163,-6298.208,-6293.2495,-6272.7456,-6243.768,-6231.8125,-6228.3525,-6213.598,-6207.9546,-6214.5654,-6218.179,-6227.048,-6241.53,-6255.0283,-6247.291,-6238.6436,-6252.747,-6249.1035,-6243.578,-6241.029,-6232.332,-6242.254,-6235.5576,-6228.4595,-6235.9077,-6227.673,-6228.656,-6230.487,-6235.969,-6261.9946,-6279.7646,-6285.9023,-6277.8984,-6258.9214,-6247.422,-6244.8315,-6248.276,-6238.1255,-6228.7197,-6242.158,-6243.803,-6242.6865,-6256.1743,-6251.8228,-6247.914,-6264.5327,-6261.1504,-6238.89,-6229.8086,-6225.0796,-6227.3555,-6233.724,-6236.464,-6251.6436,-6252.0967,-6236.304,-6236.632,-6237.5513,-6232.8423,-6226.358,-6220.076,-6222.998,-6228.8477,-6227.3745,-6213.404,-6204.729,-6217.279,-6231.555,-6232.7524,-6235.5195,-6251.6855,-6271.036,-6294.7295,-6323.4126,-6325.844,-6302.988,-6294.204,-6296.035,-6288.3193,-6265.2456,-6228.343,-6213.7925,-6221.5776,-6214.137,-6208.487,-6215.029,-6213.5337,-6208.2144,-6209.403,-6210.791,-6202.047,-6195.282,-6195.0015,-6192.1943,-6200.423,-6216.6777,-6223.023,-6214.673,-6208.674,-6219.152,-6222.1978,-6230.241,-6251.33,-6252.227,-6252.2407,-6258.0723,-6263.627,-6281.5776,-6281.8887,-6280.7935,-6299.2163,-6298.1597,-6299.9785,-6301.933,-6270.949,-6255.567,-6251.4067,-6228.8975,-6221.518,-6222.1978,-6215.8335,-6216.5103,-6222.423,-6234.664,-6244.341,-6242.972,-6242.27,-6239.9487,-6237.425,-6236.8057,-6223.8193,-6205.6436,-6205.521,-6225.557,-6237.749,-6229.5845,-6234.205,-6259.1084,-6273.948,-6266.857,-6255.424,-6271.0176,-6279.7446,-6260.697,-6258.292,-6246.284,-6236.3506,-6244.3843,-6228.6494,-6233.725,-6251.044,-6246.1675,-6241.3164,-6235.2207,-6244.5815,-6260.6855,-6263.4624,-6253.328,-6244.7524,-6247.1025,-6232.4927,-6217.2295,-6218.185,-6220.3643,-6228.631,-6235.0923,-6235.3438,-6237.677,-6235.9893,-6234.3813,-6243.9956,-6245.2812,-6240.315,-6246.235,-6243.2627,-6239.023,-6253.5547,-6266.058,-6259.8276,-6259.457,-6273.7144,-6268.5293,-6256.5938,-6278.4346,-6294.301,-6270.9146,-6260.4136,-6262.176,-6257.294,-6258.383,-6241.5386,-6221.4995,-6211.0127,-6206.074,-6211.3726,-6217.025,-6223.76,-6213.727,-6208.575,-6215.698,-6216.385,-6228.6797,-6230.6377,-6230.2334,-6239.14,-6246.707,-6257.365,-6250.1123,-6240.2344,-6236.0444,-6242.9775,-6262.009,-6249.859,-6243.6016,-6256.207,-6247.6895,-6246.801,-6243.288,-6242.058,-6260.8276,-6256.962,-6265.1206,-6288.3037,-6276.8545,-6272.0054,-6283.6235,-6282.0283,-6287.9473,-6308.7686,-6307.075,-6283.653,-6265.7617,-6251.125,-6245.481,-6234.571,-6212.7236,-6209.3286,-6216.75,-6215.922,-6212.2095,-6208.5737,-6203.9453,-6203.7905,-6202.1074,-6204.3916,-6206.759,-6192.647,-6193.183,-6208.4126,-6212.4287,-6216.9937,-6220.336,-6219.8228,-6222.6694,-6216.1504,-6203.295,-6204.8145,-6210.2334,-6218.972,-6227.7607,-6222.4424,-6223.232,-6218.2524,-6216.498,-6231.4204,-6212.8804,-6191.5674,-6199.7676,-6196.8105,-6201.1973,-6219.235,-6215.5703,-6208.8047,-6226.3916,-6249.5645,-6255.018,-6260.2305,-6275.5703,-6273.928,-6251.793,-6233.1475,-6228.38,-6225.4087,-6220.629,-6214.103,-6209.285,-6221.9897,-6226.424,-6220.0063,-6224.7993,-6224.935,-6226.112,-6225.2783,-6216.657,-6201.045,-6187.0063,-6211.6885,-6240.9165,-6237.939,-6232.014,-6237.2227,-6249.8677,-6251.3545,-6243.0874,-6240.9487,-6230.5503,-6213.574,-6198.115,-6186.956,-6199.685,-6212.5635,-6211.308,-6211.3545,-6205.9175,-6208.097,-6201.268,-6192.228,-6210.9443,-6233.2285,-6250.328,-6268.578,-6297.169,-6303.668,-6293.697,-6295.3213,-6275.476,-6259.4214,-6240.125,-6212.474,-6206.3184,-6199.5034,-6193.4287,-6179.1274,-6171.0034,-6188.974,-6210.635,-6213.1416,-6200.0615,-6205.3105,-6196.753,-6181.209,-6190.589,-6186.643,-6179.828,-6174.286,-6175.0244,-6187.728,-6193.2793,-6206.907,-6211.436,-6217.1943,-6236.7896,-6235.32,-6231.544,-6225.632,-6213.7207,-6217.144,-6222.631,-6230.055,-6230.7764,-6222.9106,-6222.1157,-6212.8403,-6200.1704,-6203.768,-6214.8716,-6211.655,-6205.4653,-6216.763,-6228.8433,-6246.0376,-6265.847,-6265.601,-6254.622,-6246.5195,-6255.0605,-6272.9243,-6273.5967,-6260.18,-6245.4595,-6216.329,-6180.6406,-6173.4536,-6177.9653,-6186.816,-6208.1987,-6223.6675,-6238.6206,-6242.298,-6242.198,-6242.6123,-6213.6494,-6189.3267,-6189.0933,-6187.6035,-6188.777,-6195.0493,-6198.2837,-6199.792,-6199.6787,-6201.5967,-6206.2964,-6208.5806,-6216.9165,-6224.601,-6227.8374,-6237.135,-6243.4736,-6246.0024,-6254.0425,-6262.7993,-6263.7676,-6270.8486,-6289.549,-6289.5244,-6272.927,-6275.483,-6284.111,-6272.2783,-6244.8594,-6223.3955,-6229.6304,-6225.198,-6211.658,-6226.4707,-6225.8076,-6216.2427,-6216.922,-6208.797,-6207.752,-6204.5977,-6193.9814,-6198.5586,-6216.665,-6220.307,-6213.566,-6218.273,-6225.135,-6234.042,-6240.409,-6241.4194,-6244.7134,-6248.146,-6250.303,-6251.8105,-6256.747,-6257.1123,-6269.741,-6286.005,-6272.444,-6268.4365,-6278.144,-6290.485,-6306.5747,-6294.0703,-6296.4053,-6310.9946,-6289.501,-6275.144,-6258.924,-6223.418,-6202.511,-6199.115,-6210.3486,-6217.5977,-6218.5254,-6217.3135,-6206.509,-6218.931,-6240.3687,-6229.166,-6212.2363,-6214.797,-6223.8936,-6219.947,-6211.782,-6221.3154,-6231.9863,-6233.1123,-6238.9927,-6242.342,-6243.541,-6253.2866,-6257.78,-6256.63,-6256.3267,-6258.3496,-6266.8613,-6262.7944,-6254.7603,-6260.6206,-6260.975,-6260.347,-6265.825,-6257.8013,-6239.2607,-6234.1216,-6236.219,-6233.939,-6243.6787,-6252.898,-6247.6562,-6251.6187,-6266.9565,-6276.478,-6268.6357,-6253.379,-6251.101,-6246.482,-6236.8994,-6234.6436,-6222.688,-6210.2983,-6213.153,-6217.8804,-6233.377,-6254.525,-6245.272,-6234.5884,-6242.426,-6233.7285,-6238.158,-6253.423,-6253.8965,-6269.8135,-6277.9507,-6271.2935,-6265.8423,-6252.756,-6249.4,-6258.3076,-6266.3687,-6267.509,-6270.1455,-6264.4194,-6252.143,-6267.1343,-6275.703,-6264.456,-6261.29,-6257.104,-6263.354,-6273.838,-6272.722,-6269.2236,-6252.049,-6231.5557,-6224.6323,-6213.939,-6198.496,-6188.3027,-6190.473,-6206.9536,-6208.88,-6203.182,-6213.588,-6221.66,-6234.049,-6240.6196,-6230.779,-6232.1543,-6234.5728,-6239.255,-6248.2896,-6246.9214,-6254.343,-6266.2573,-6258.0156,-6245.242,-6250.482,-6253.2056,-6244.6772,-6244.4834,-6241.227,-6234.556,-6247.4863,-6264.081,-6265.658,-6277.4736,-6292.1836,-6275.5386,-6269.042,-6296.2666,-6302.9683,-6291.3604,-6294.868,-6287.499,-6257.794,-6244.9307,-6250.138,-6242.367,-6233.288,-6232.2915,-6231.622
-6221.956,-6203.005,-6201.283,-6202.3286,-6197.9263,-6199.797,-6196.1187,-6210.4717,-6239.6895,-6258.9336,-6274.0635,-6283.0713,-6290.758,-6294.1724,-6294.48,-6304.398,-6304.2666,-6284.53,-6276.2925,-6281.001,-6267.8867,-6249.7437,-6243.081,-6231.915,-6215.366,-6204.3354,-6196.4033,-6190.1406,-6194.235,-6195.7188,-6196.4663,-6205.6875,-6206.094,-6215.5396,-6233.2754,-6238.526,-6240.7354,-6240.662,-6252.27,-6266.574,-6267.741,-6277.299,-6279.0566,-6268.092,-6272.9224,-6279.3135,-6274.846,-6265.9956,-6246.43,-6240.7344,-6258.7495,-6247.988,-6229.286,-6237.896,-6233.918,-6233.847,-6241.2446,-6237.6553,-6242.5605,-6246.4536,-6251.297,-6257.4453,-6259.2944,-6247.118,-6233.5713,-6250.625,-6256.0835,-6243.464,-6231.222,-6218.3726,-6224.387,-6230.612,-6242.434,-6250.4346,-6235.9814,-6233.796,-6234.6616,-6230.87,-6227.5405,-6216.998,-6212.076,-6211.0444,-6215.377,-6217.402,-6212.1665,-6215.081,-6216.8335,-6220.0156,-6225.4683,-6229.9087,-6237.4414,-6242.2393,-6253.229,-6254.1167,-6255.7295,-6267.7856,-6255.4546,-6265.197,-6288.203,-6270.707,-6259.594,-6261.262,-6256.106,-6252.8574,-6265.7905,-6274.801,-6251.3105,-6244.952,-6245.4185,-6233.718,-6233.3364,-6220.316,-6217.331,-6216.5015,-6198.0894,-6196.641,-6207.996,-6215.339,-6208.6978,-6210.3955,-6211.9375,-6197.4673,-6204.0903,-6216.6484,-6230.9385,-6244.2544,-6235.3716,-6231.1562,-6231.2744,-6225.093,-6225.776,-6231.5835,-6225.5596,-6221.0303,-6232.5225,-6231.154,-6226.3003,-6232.529,-6234.3984,-6236.255,-6233.872,-6242.4614,-6277.5317,-6299.831,-6294.4023,-6292.3354,-6299.188,-6300.1333,-6294.416,-6282.7964,-6278.219,-6283.545,-6280.3374,-6279.5635,-6274.444,-6244.398,-6212.6196,-6202.4946,-6205.0776,-6196.7188,-6192.84,-6206.3213,-6206.815,-6199.387,-6206.4067,-6213.4077,-6206.9653,-6203.3525,-6201.633,-6197.428,-6208.1665,-6225.267,-6248.8076,-6273.616,-6270.0615,-6268.2915,-6293.6553,-6293.317,-6274.3584,-6287.331,-6287.957,-6257.8716,-6241.7446,-6234.8296,-6225.3833,-6218.6836,-6202.6074,-6189.84,-6189.4463,-6178.892,-6182.24,-6190.3696,-6182.765,-6188.1836,-6186.0366,-6188.608,-6204.615,-6204.776,-6204.055,-6214.959,-6246.5723,-6267.6035,-6264.8735,-6271.0957,-6274.0806,-6263.8296,-6249.3535,-6245.855,-6244.071,-6223.596,-6203.1895,-6198.427,-6205.7227,-6211.1426,-6219.4854,-6226.9673,-6209.4424,-6205.9766,-6223.459,-6211.5874,-6207.3813,-6225.222,-6226.6616,-6219.8394,-6210.784,-6218.3745,-6223.83,-6218.977,-6237.545,-6243.1406,-6238.019,-6240.1655,-6243.3374,-6248.3594,-6243.4443,-6256.7036,-6279.3604,-6278.3247,-6264.471,-6259.48,-6252.075,-6229.066,-6220.8276,-6223.016,-6229.379,-6233.3315,-6224.719,-6222.998,-6223.473,-6226.228,-6224.1685,-6225.947,-6239.486,-6242.235,-6239.6255,-6235.99,-6250.126,-6266.958,-6254.0547,-6239.3896,-6227.766,-6224.7373,-6241.9033,-6248.216,-6247.5225,-6264.8364,-6277.7285,-6280.8906,-6287.4795,-6288.2554,-6282.4136,-6277.5913,-6294.822,-6296.054,-6249.1597,-6221.453,-6217.989,-6216.2856,-6219.4385,-6224.853,-6242.872,-6249.125,-6246.0874,-6237.303,-6229.339,-6238.443,-6230.403,-6223.819,-6220.807,-6207.844,-6207.5684,-6202.159,-6204.833,-6214.2065,-6216.532,-6230.839,-6241.5674,-6244.3975,-6246.5728,-6243.603,-6227.32,-6215.2886,-6228.882,-6240.27,-6256.33,-6278.2397,-6280.671,-6272.6577,-6249.9272,-6231.268,-6234.1763,-6242.1235,-6236.611,-6224.643,-6235.592,-6240.5737,-6232.8027,-6224.901,-6215.2295,-6225.9473,-6230.3745,-6236.038,-6248.209,-6238.1514,-6233.442,-6229.048,-6217.5703,-6208.6636,-6199.197,-6194.8438,-6192.801,-6200.728,-6218.504,-6232.278,-6234.1846,-6241.1675,-6251.156,-6238.537,-6224.8154,-6213.758,-6208.744,-6217.635,-6219.331,-6227.7344,-6232.144,-6226.7446,-6231.6577,-6234.6753,-6240.605,-6242.7773,-6241.305,-6244.531,-6238.866,-6241.9663,-6249.778,-6252.5425,-6252.4453,-6238.211,-6234.6924,-6230.103,-6209.5005,-6210.356,-6220.8813,-6217.083,-6208.4707,-6218.113,-6240.725,-6238.491,-6227.529,-6230.961,-6233.331,-6228.0093,-6226.674,-6241.8584,-6254.2344,-6259.9473,-6279.783,-6298.836,-6303.2207,-6296.504,-6280.08,-6272.262,-6286.1484,-6289.7373,-6273.469,-6265.869,-6242.727,-6213.53,-6213.655,-6212.1445,-6215.0713,-6222.5566,-6217.3013,-6213.863,-6199.9995,-6196.3936,-6204.3135,-6185.98,-6179.122,-6194.8096,-6200.6543,-6212.9707,-6225.625,-6223.9756,-6226.281,-6232.8745,-6235.5464,-6235.191,-6241.285,-6250.6567,-6254.1953,-6258.553,-6259.5225,-6258.5776,-6257.385,-6263.4717,-6290.622,-6300.329,-6287.6543,-6291.5903,-6286.301,-6258.2876,-6240.062,-6236.1914,-6233.2656,-6222.931,-6204.3643,-6208.5254,-6236.092,-6234.999,-6234.1875,-6243.6895,-6224.28,-6218.7715,-6226.7075,-6230.197,-6230.757,-6221.1357,-6226.9326,-6230.355,-6232.17,-6241.9966,-6244.47,-6254.319,-6268.617,-6288.3877,-6293.12,-6284.5786,-6291.803,-6293.3823,-6297.99,-6291.5957,-6276.403,-6288.6484,-6286.9175,-6271.893,-6266.6636,-6261.4795,-6255.353,-6257.289,-6275.4214,-6266.7974,-6250.042,-6260.9214,-6265.287,-6272.186,-6272.681,-6256.59,-6247.8765,-6240.2676,-6236.4043,-6241.209,-6248.753,-6248.0737,-6244.4478,-6243.1084,-6234.2783,-6228.1797,-6228.088,-6246.1167,-6257.2666,-6244.435,-6255.363,-6261.6978,-6250.273,-6244.4775,-6233.3066,-6240.6567,-6251.562,-6255.6064,-6264.761,-6258.0093,-6257.9688,-6263.9536,-6255.482,-6253.6914,-6255.145,-6250.8237,-6245.3154,-6237.3765,-6228.465,-6226.9165,-6227.0474,-6216.9663,-6224.249,-6255.6426,-6272.4434,-6278.213,-6293.008,-6285.6787,-6259.305,-6262.9736,-6272.5947,-6265.9067,-6259.262,-6248.9814,-6253.813,-6264.9434,-6258.4233,-6250.3994,-6247.24,-6241.652,-6242.834,-6263.762,-6283.4517,-6280.129,-6264.2383,-6260.883,-6259.3354,-6238.648,-6220.5723,-6218.9146,-6236.485,-6237.975,-6225.8516,-6235.2935,-6231.5303,-6229.522,-6228.9995,-6221.1914,-6224.0737,-6210.391,-6214.324,-6236.5117,-6246.729,-6254.485,-6247.5845,-6241.213,-6240.418,-6242.348,-6244.9766,-6230.8726,-6214.7827,-6217.0835,-6223.4624,-6222.356,-6236.7524,-6245.1577,-6222.8433,-6204.841,-6215.2827,-6234.709,-6230.3955,-6232.058,-6240.8667,-6225.3276,-6218.2324,-6221.0806,-6228.86,-6228.262,-6204.9775,-6202.6484,-6213.0356,-6217.718,-6219.373,-6217.057,-6228.838,-6230.3823,-6222.487,-6223.2715,-6216.907,-6213.5044,-6213.615,-6212.1606,-6214.0195,-6224.713,-6233.5435,-6234.4414,-6245.982,-6251.577,-6260.8066,-6279.678,-6279.102,-6273.148,-6274.998,-6286.386,-6297.2783,-6302.4355,-6289.5894,-6270.3193,-6275.0894,-6247.2344,-6211.3994,-6217.867,-6211.7476,-6197.4785,-6191.652,-6198.8438,-6214.2275,-6216.74,-6223.5083,-6231.741,-6235.6377,-6237.024,-6244.053,-6254.8706,-6248.0005,-6250.5405,-6258.1553,-6254.3784,-6258.6313,-6244.8467,-6222.1787,-6214.9067,-6213.6562,-6223.247,-6225.0723,-6220.478,-6220.482,-6215.9546,-6213.75,-6219.5786,-6231.549,-6234.8403,-6230.354,-6217.1377,-6210.5728,-6234.1416,-6239.645,-6225.539,-6222.706,-6226.2036,-6244.3916,-6245.0264,-6230.8896,-6233.5547,-6227.7607,-6228.9985,-6250.9062,-6255.293,-6244.174,-6233.6895,-6220.9277,-6209.1436,-6195.6426,-6196.349,-6203.593,-6195.1523,-6211.934,-6239.2563,-6242.6104,-6251.6694,-6264.6567,-6274.0806,-6281.979,-6302.0415,-6330.505,-6350.739,-6372.549,-6353.615,-6297.156,-6257.2715,-6232.759,-6214.8843,-6201.5776,-6206.7104,-6210.825,-6194.044,-6191.3853,-6201.119,-6193.1235,-6187.0854,-6203.588,-6209.807,-6211.6,-6224.8857,-6227.3667,-6221.764,-6216.203,-6212.1025,-6200.9395,-6212.1494,-6256.7773,-6267.3647,-6255.234,-6258.687,-6255.72,-6252.905,-6252.8994,-6245.7886,-6239.1357,-6231.0566,-6234.1426,-6238.926,-6231.0474,-6238.377,-6241.006,-6231.4033,-6236.8726,-6252.971,-6272.0625,-6278.255,-6287.191,-6294.4043,-6292.562,-6298.252,-6282.9746,-6276.3833,-6272.186,-6238.5205,-6234.247,-6244.393,-6245.628,-6250.12,-6241.4585,-6232.3887,-6219.0728,-6209.64,-6217.896,-6212.696,-6204.5234,-6207.677,-6208.4287,-6207.8735,-6208.315,-6215.2095,-6220.754,-6226.862,-6234.6357,-6241.6787,-6254.9653,-6258.742,-6265.3804,-6267.648,-6247.8076,-6236.5435,-6235.3877,-6226.3726,-6208.3433,-6210.0327,-6220.5513,-6214.0957,-6224.186,-6238.5186,-6243.5347,-6244.2256,-6237.0356,-6249.744,-6265.8784,-6264.2056,-6265.1577,-6274.747,-6290.213,-6293.564,-6265.488,-6241.004,-6235.5596,-6225.8955,-6231.8364,-6237.0825,-6226.6143,-6225.723,-6221.752,-6217.485,-6216.5186,-6219.462,-6226.275,-6223.908,-6223.589,-6234.681,-6251.2163,-6247.6255,-6238.686,-6250.1543,-6262.466,-6267.934,-6260.618,-6249.058,-6237.0654,-6242.384,-6253.4014,-6229.885,-6228.5957,-6237.421,-6229.3003,-6238.506,-6239.924,-6242.3423,-6229.294,-6205.876,-6215.089,-6221.4497,-6213.2954,-6204.041,-6216.9556,-6237.243,-6228.0293,-6223.103,-6227.5557,-6228.1987,-6231.1064,-6231.8135,-6235.96,-6241.7163,-6242.2485,-6233.6973,-6221.3774,-6217.8633,-6227.168,-6244.333,-6254.8096,-6251.8247,-6244.05,-6247.1055,-6257.614,-6270.5664,-6290.088,-6301.3594,-6296.5845,-6270.8506,-6247.078,-6245.18,-6236.5225,-6227.939,-6225.1157,-6220.4585,-6222.4995,-6218.9946,-6214.8237,-6212.3535,-6204.823,-6206.024,-6210.6055,-6210.592,-6210.586,-6203.765,-6198.2026,-6205.542,-6215.2104,-6223.2725,-6226.877,-6227.3003,-6229.725,-6227.834,-6228.4346,-6242.641,-6266.5513,-6271.8447,-6252.8306,-6241.86,-6232.6016,-6225.461,-6235.3525,-6243.579,-6246.6514,-6248.3857,-6253.391,-6261.03,-6267.763,-6281.889,-6272.467,-6247.965,-6242.8696,-6227.827,-6223.6543,-6231.656,-6218.4272,-6216.511,-6213.007,-6200.7505,-6198.315,-6199.2876,-6219.481,-6233.019,-6222.7153,-6220.2686,-6215.4194,-6203.8965,-6210.9253,-6216.715,-6207.518,-6212.865,-6227.794,-6233.1753,-6235.776,-6247.8477,-6279.1436,-6312.8164,-6331.1826,-6328.617,-6285.131,-6227.129,-6215.6553,-6232.173,-6219.435,-6202.962,-6199.9385,-6181.156,-6181.796,-6196.9766,-6192.5234,-6185.8037,-6180.682,-6192.1987,-6206.2188,-6217.1147,-6234.762,-6236.0386,-6240.2246,-6242.342,-6245.5757,-6266.715,-6269.3105,-6254.2764,-6237.757,-6231.61,-6229.259,-6217.6475,-6211.979,-6208.9155,-6215.381,-6221.5244,-6213.9023,-6209.255,-6203.8506,-6205.6187,-6212.399,-6205.0576,-6199.0513,-6198.951,-6193.745,-6194.6475,-6200.6914,-6200.2144,-6198.719,-6201.3223,-6203.8477,-6207.26,-6223.1113,-6240.8735,-6245.774,-6244.5034,-6253.5845,-6273.0166,-6260.0283,-6231.5166,-6232.43,-6237.5894,-6237.7227,-6230.8716,-6220.8755,-6221.9204,-6219.1187,-6216.5054,-6208.339,-6196.013,-6198.3115,-6195.294,-6198.2764,-6216.1475,-6218.4683,-6219.614,-6224.491,-6216.4014,-6214.163,-6216.44,-6205.737,-6193.864,-6194.089,-6201.1187,-6203.0923,-6200.563,-6200.1104,-6200.033,-6202.908,-6209.6055,-6215.619,-6224.686,-6230.2646,-6228.1597,-6228.9663,-6227.144,-6224.6523,-6227.266,-6228.0093,-6237.2407,-6247.334,-6246.779,-6244.9224,-6233.321,-6221.3228,-6221.1367,-6220.548,-6208.0747,-6193.734,-6202.5312,-6209.928,-6210.52,-6219.876,-6216.856,-6211.5063,-6208.1,-6205.331,-6209.7783,-6214.1655,-6211.334,-6209.1465,-6216.2393,-6206.9883,-6202.716,-6206.0454,-6195.4517,-6209.422,-6231.4214,-6236.218,-6230.4673,-6220.3906,-6214.815,-6212.941,-6221.659,-6232.0483,-6231.044,-6218.663,-6216.9746,-6211.702,-6193.361,-6197.364,-6198.17,-6196.8667,-6198.5547,-6191.9834,-6192.767,-6183.7295,-6188.481,-6211.4307,-6223.8076,-6219.6777,-6213.6416,-6228.673,-6235.254,-6237.472,-6235.277,-6233.214,-6249.3896,-6234.3613,-6216.315,-6213.54,-6201.2573,-6212.286,-6231.482,-6240.5073,-6249.981,-6258.4287,-6254.7026,-6240.356,-6240.3594,-6236.7456,-6223.076,-6219.5327,-6211.943,-6208.204,-6210.8354,-6200.8623,-6189.7603,-6189.677,-6196.281,-6203.2295,-6205.915,-6200.7397,-6200.345,-6208.6035,-6206.8354,-6198.9175,-6197.743,-6207.796,-6223.4253,-6234.774,-6253.137,-6274.763,-6272.4365,-6258.7173,-6251.7935,-6237.31,-6222.351,-6215.1626,-6206.828,-6188.966,-6176.098,-6189.669,-6205.151,-6216.205,-6217.195,-6209.695,-6223.1577,-6230.929,-6239.921,-6244.784,-6219.684,-6208.5117,-6206.2114,-6206.7324,-6212.017,-6214.3994,-6232.9854,-6241.6206,-6242.7485,-6255.652,-6263.711,-6259.499,-6240.1724,-6226.444,-6231.858,-6243.468,-6241.9214,-6225.444,-6219.1567,-6218.402,-6208.061,-6201.661,-6200.146,-6194.6953,-6201.2925,-6209.3438,-6198.436,-6195.175,-6201.406,-6212.6646,-6223.1504,-6206.759,-6197.3203,-6205.958,-6194.87,-6183.206,-6189.2363,-6195.567,-6203.059,-6203.515,-6198.521,-6209.1904,-6213.222,-6206.9863,-6217.268,-6230.1753,-6228.928,-6224.1543,-6222.6313,-6223.468,-6230.6104,-6232.846,-6235.836,-6252.922,-6252.9062,-6240.4434,-6233.3604,-6219.916,-6220.1274,-6219.5117,-6210.5757,-6220.783,-6228.229,-6224.349,-6208.5615,-6194.468,-6205.8296,-6226.3506,-6239.4824,-6237.782,-6247.311,-6262.1875,-6262.8735,-6251.77,-6226.308,-6224.4023,-6211.2876,-6192.146,-6200.678,-6181.4805,-6179.005,-6190.7666,-6190.72,-6214.2075,-6224.184,-6222.853,-6223.732,-6220.9478,-6211.8315,-6201.5513,-6205.2607,-6206.328,-6213.46
-6226.4824,-6234.165,-6231.892,-6231.807,-6244.8975,-6240.742,-6254.033,-6276.916,-6257.3276,-6238.69,-6230.3574,-6222.6074,-6226.317,-6231.1113,-6229.0996,-6217.668,-6213.1636,-6208.3174,-6202.2373,-6214.7354,-6222.817,-6217.139,-6206.893,-6205.589,-6215.39,-6212.7114,-6213.349,-6214.1777,-6209.8003,-6224.7114,-6228.172,-6223.46,-6228.1924,-6217.3438,-6204.714,-6192.9146,-6184.7783,-6194.6567,-6206.778,-6215.6934,-6227.6733,-6245.258,-6251.552,-6250.034,-6243.195,-6219.8384,-6214.561,-6214.1934,-6200.1924,-6197.2534,-6206.507,-6227.917,-6226.119,-6212.7383,-6220.8853,-6212.444,-6209.2686,-6219.045,-6213.6304,-6209.3833,-6197.109,-6190.284,-6199.644,-6212.694,-6238.2603,-6264.311,-6280.2617,-6278.42,-6280.6284,-6293.629,-6286.5186,-6266.0957,-6234.136,-6220.962,-6217.3477,-6201.747,-6212.6606,-6215.5327,-6212.637,-6209.49,-6198.2334,-6208.72,-6202.5903,-6196.861,-6198.773,-6194.599,-6201.1387,-6193.9067,-6196.4517,-6201.6973,-6199.133,-6201.682,-6196.9453,-6204.2837,-6205.2856,-6205.0435,-6222.736,-6235.6797,-6241.584,-6235.8916,-6229.2954,-6232.964,-6247.8887,-6269.7495,-6291.22,-6297.8115,-6262.0264,-6237.967,-6246.9106,-6228.0396,-6206.827,-6200.762,-6191.6,-6192.067,-6193.693,-6198.9214,-6204.0996,-6201.7075,-6200.898,-6196.733,-6200.1895,-6202.4326,-6191.116,-6192.0674,-6204.273,-6211.7734,-6216.957,-6219.761,-6222.684,-6233.187,-6239.4766,-6240.1187,-6253.3315,-6262.126,-6255.265,-6245.371,-6227.0825,-6210.262,-6201.7124,-6195.4307,-6198.2666,-6198.458,-6199.027,-6207.8535,-6207.2666,-6207.357,-6213.334,-6208.5767,-6195.9116,-6192.713,-6205.908,-6215.046,-6214.872,-6221.248,-6230.0625,-6241.9014,-6256.342,-6259.21,-6268.045,-6279.389,-6261.4126,-6258.185,-6284.41,-6277.5356,-6248.374,-6229.974,-6218.1045,-6214.8115,-6214.8984,-6217.2236,-6224.6553,-6231.6113,-6233.5347,-6236.1055,-6233.1587,-6225.8335,-6232.0527,-6236.224,-6239.564,-6239.34,-6222.048,-6209.786,-6198.213,-6196.128,-6204.8477,-6200.194,-6199.4697,-6200.2866,-6200.187,-6210.7495,-6215.326,-6222.9985,-6241.0356,-6246.0117,-6245.358,-6241.953,-6228.1064,-6229.7417,-6242.5996,-6247.264,-6245.96,-6233.555,-6221.0825,-6214.5815,-6211.0835,-6223.968,-6237.5244,-6232.974,-6235.6973,-6248.169,-6244.874,-6235.845,-6234.538,-6235.0337,-6235.3223,-6235.297,-6239.7866,-6245.542,-6244.0024,-6244.522,-6245.5986,-6235.552,-6231.673,-6247.3145,-6254.4287,-6240.831,-6236.7466,-6241.699,-6246.454,-6268.3184,-6284.25,-6277.142,-6274.845,-6276.271,-6259.0625,-6236.847,-6233.8237,-6232.6836,-6215.8374,-6198.334,-6194.2393,-6198.7563,-6200.856,-6205.2837,-6212.7285,-6210.0835,-6206.125,-6209.636,-6202.8115,-6194.0933,-6197.547,-6203.7334,-6207.3525,-6207.969,-6223.299,-6238.6724,-6241.181,-6247.447,-6235.9463,-6225.298,-6231.2812,-6221.653,-6220.218,-6233.697,-6229.2896,-6227.024,-6228.7075,-6214.9697,-6220.276,-6250.683,-6268.3726,-6254.9326,-6244.3013,-6255.582,-6246.071,-6236.189,-6236.6465,-6232.8257,-6245.776,-6242.383,-6240.5757,-6251.678,-6241.649,-6241.212,-6233.829,-6222.0063,-6220.665,-6197.082,-6185.835,-6189.022,-6181.202,-6183.0415,-6192.727,-6202.214,-6210.136,-6218.173,-6232.515,-6255.37,-6268.4385,-6272.0054,-6302.9316,-6325.2217,-6299.204,-6274.5083,-6251.042,-6207.226,-6195.653,-6201.214,-6197.11,-6224.2354,-6235.876,-6218.8364,-6219.9253,-6222.881,-6228.4126,-6223.5854,-6211.304,-6218.765,-6223.8125,-6216.921,-6210.1724,-6210.631,-6214.045,-6226.3857,-6248.828,-6261.32,-6265.534,-6263.235,-6261.8545,-6266.377,-6264.125,-6261.3823,-6256.9707,-6254.6895,-6254.4214,-6242.202,-6238.002,-6240.018,-6234.34,-6228.0293,-6232.31,-6246.4834,-6249.121,-6265.752,-6280.0967,-6263.0107,-6259.7495,-6256.851,-6248.8228,-6246.0933,-6243.302,-6262.234,-6276.54,-6281.466,-6284.468,-6269.3296,-6259.661,-6254.556,-6247.199,-6247.549,-6238.618,-6224.384,-6217.802,-6220.402,-6239.408,-6250.0747,-6247.993,-6248.3315,-6247.02,-6262.556,-6269.9395,-6256.5464,-6261.1714,-6265.945,-6256.982,-6252.5,-6262.489,-6277.714,-6278.1714,-6273.024,-6274.0044,-6272.951,-6267.042,-6268.6143,-6267.631,-6257.13,-6252.597,-6244.0796,-6242.745,-6248.3574,-6234.8135,-6227.8647,-6236.9155,-6239.0483,-6236.388,-6243.169,-6251.9395,-6255.338,-6261.405,-6252.171,-6252.9727,-6283.2734,-6290.683,-6289.022,-6293.2695,-6291.231,-6305.87,-6315.0645,-6306.6313,-6295.321,-6288.953,-6283.294,-6254.2905,-6237.804,-6243.2217,-6240.5264,-6258.3936,-6284.9805,-6289.94,-6283.795,-6271.086,-6256.9834,-6245.409,-6242.0547,-6241.87,-6236.3306,-6241.062,-6251.0195,-6251.791,-6254.5425,-6263.8516,-6274.6475,-6276.6763,-6274.2856,-6278.41,-6273.618,-6277.384,-6297.6064,-6299.9595,-6302.925,-6311.11,-6292.1597,-6275.5327,-6281.2466,-6274.609,-6275.7817,-6287.4893,-6268.2485,-6257.4653,-6258.1636,-6251.8857,-6256.182,-6243.604,-6227.4424,-6235.1523,-6254.378,-6260.1987,-6256.01,-6266.86,-6268.14,-6262.637,-6265.733,-6272.2866,-6287.6875,-6285.98,-6276.616,-6285.0522,-6286.727,-6283.665,-6292.125,-6302.29,-6307.01,-6301.466,-6294.475,-6291.2026,-6284.821,-6283.9873,-6285.156,-6283.989,-6276.7046,-6261.8325,-6256.996,-6257.0015,-6253.435,-6248.7783,-6237.295,-6218.6597,-6218.8228,-6245.8555,-6259.2437,-6249.6465,-6241.5747,-6242.1265,-6235.8687,-6228.081,-6230.1245,-6231.9287,-6245.9536,-6259.2417,-6272.591,-6298.7437,-6297.5977,-6280.741,-6278.829,-6286.32,-6294.017,-6289.2134,-6279.5127,-6270.965,-6266.772,-6264.889,-6258.2812,-6259.9907,-6260.8584,-6251.1343,-6246.7495,-6245.9097,-6242.7773,-6241.986,-6241.878,-6242.7993,-6246.667,-6248.394,-6254.7856,-6259.375,-6252.017,-6257.051,-6268.5234,-6274.282,-6289.692,-6297.8833,-6295.4517,-6293.6406,-6284.968,-6278.234,-6267.81,-6260.058,-6271.054,-6266.1855,-6246.673,-6240.011,-6236.9995,-6248.7583,-6266.0146,-6245.6055,-6218.272,-6229.2173,-6242.5063,-6242.1216,-6251.451,-6259.6377,-6258.914,-6262.681,-6271.866,-6274.4683,-6260.848,-6249.653,-6258.939,-6257.7466,-6245.349,-6245.345,-6238.3716,-6235.781,-6241.7363,-6236.363,-6241.222,-6245.8564,-6234.4243,-6238.4883,-6252.4556,-6249.2563,-6247.1694,-6251.6636,-6246.499,-6244.0,-6241.6475,-6240.57,-6247.2075,-6244.8735,-6242.531,-6247.0776,-6258.804,-6266.675,-6262.741,-6274.869,-6290.3003,-6300.438,-6313.215,-6307.611,-6294.0864,-6283.712,-6277.1313,-6271.5283,-6257.8486,-6253.6533,-6255.5977,-6252.604,-6251.8335,-6244.782,-6233.8535,-6233.929,-6236.827,-6231.3794,-6235.345,-6252.8945,-6260.112,-6262.3276,-6272.053,-6272.8867,-6258.3755,-6248.8154,-6256.5283,-6262.4106,-6255.5117,-6244.599,-6241.4546,-6252.695,-6248.068,-6226.661,-6222.904,-6228.371,-6222.812,-6208.9062,-6212.88,-6227.135,-6225.058,-6213.6343,-6203.8413,-6211.3125,-6219.913,-6219.195,-6223.8013,-6217.7124,-6207.1494,-6208.3726,-6220.7744,-6230.815,-6226.8125,-6225.2935,-6226.877,-6239.418,-6254.3535,-6251.6235,-6260.0728,-6259.603,-6251.5977,-6272.5986,-6268.379,-6247.341,-6248.716,-6237.092,-6233.937,-6255.5444,-6262.8857,-6254.0283,-6259.884,-6274.471,-6267.0513,-6265.523,-6274.2236,-6270.761,-6264.5273,-6241.9873,-6227.913,-6230.382,-6220.356,-6215.3774,-6210.27,-6206.061,-6214.6,-6216.5347,-6215.9116,-6224.103,-6233.5444,-6239.237,-6240.89,-6242.05,-6247.102,-6242.3057,-6229.7935,-6231.7183,-6240.768,-6249.014,-6255.33,-6253.111,-6250.3677,-6257.646,-6271.014,-6273.952,-6269.493,-6265.4854,-6258.2603,-6258.4937,-6252.97,-6242.849,-6244.2593,-6228.4004,-6208.819,-6205.1104,-6211.3545,-6226.6533,-6224.693,-6235.4375,-6259.905,-6253.718,-6249.9614,-6260.1763,-6269.1597,-6274.5938,-6275.274,-6274.324,-6273.4717,-6276.115,-6270.4644,-6267.0664,-6272.607,-6278.0254,-6278.338,-6261.177,-6249.1577,-6254.303,-6245.1475,-6223.4375,-6224.2905,-6231.741,-6229.7266,-6241.058,-6244.1357,-6233.757,-6239.373,-6250.6963,-6258.3286,-6263.1064,-6253.3843,-6239.1147,-6231.417,-6239.5093,-6262.952,-6256.034,-6243.5386,-6251.53,-6235.4966,-6221.0977,-6213.225,-6210.1997,-6224.1533,-6215.2305,-6209.559,-6218.373,-6215.8774,-6213.894,-6215.767,-6218.29,-6214.8433,-6220.878,-6228.7715,-6227.325,-6238.6846,-6252.916,-6260.307,-6261.2896,-6266.851,-6274.0483,-6273.4365,-6277.704,-6268.6816,-6257.8086,-6257.3154,-6254.978,-6267.4165,-6274.609,-6273.898,-6275.557,-6256.691,-6238.121,-6238.1064,-6244.3613,-6245.1597,-6240.0757,-6243.5737,-6237.0977,-6217.86,-6216.1665,-6219.891,-6215.479,-6212.299,-6213.4136,-6209.1616,-6200.0884,-6206.0107,-6211.0215,-6210.364,-6221.064,-6227.274,-6228.85,-6231.7134,-6241.9956,-6260.4688,-6268.276,-6277.6865,-6286.8086,-6285.696,-6301.836,-6312.3877,-6282.4697,-6263.368,-6268.277,-6254.5933,-6256.947,-6264.966,-6231.783,-6221.0874,-6243.285,-6247.2173,-6244.711,-6243.7085,-6249.315,-6270.3906,-6265.139,-6230.4565,-6234.67,-6245.558,-6231.277,-6241.8955,-6237.7773,-6225.8433,-6237.629,-6227.972,-6228.6816,-6245.063,-6238.2124,-6226.1304,-6227.0303,-6235.589,-6235.974,-6238.906,-6249.642,-6253.1704,-6254.013,-6266.128,-6280.923,-6272.419,-6250.926,-6241.7573,-6249.152,-6254.4814,-6246.743,-6239.995,-6235.3296,-6230.569,-6219.8184,-6214.552,-6224.4233,-6222.996,-6216.71,-6216.2935,-6214.5166,-6218.6636,-6226.569,-6233.858,-6233.3237,-6225.1797,-6236.893,-6258.7114,-6256.7383,-6254.4014,-6249.2017,-6235.166,-6243.1885,-6241.7603,-6236.358,-6246.2295,-6248.8853,-6243.333,-6230.1655,-6239.353,-6242.5527,-6230.4946,-6241.311,-6236.7925,-6236.6846,-6241.0864,-6224.443,-6222.854,-6221.355,-6215.2446,-6220.6587,-6226.2964,-6231.96,-6246.9614,-6258.435,-6261.7354,-6280.57,-6289.5854,-6272.2163,-6266.127,-6266.7974,-6253.3193,-6238.9165,-6233.931,-6231.8384,-6221.8364,-6212.177,-6210.489,-6211.685,-6216.096,-6208.387,-6197.814,-6197.6436,-6196.7666,-6200.4673,-6197.549,-6192.3955,-6200.882,-6207.923,-6205.4785,-6204.42,-6204.7285,-6197.0503,-6201.107,-6205.3853,-6195.2554,-6205.2007,-6225.984,-6239.488,-6243.986,-6235.364,-6234.5903,-6247.0947,-6255.118,-6238.58,-6213.996,-6212.5293,-6221.4746,-6229.9365,-6236.741,-6248.575,-6253.7593,-6238.375,-6230.5356,-6218.223,-6208.551,-6227.8975,-6244.285,-6240.6533,-6225.1245,-6227.83,-6235.1807,-6225.333,-6227.5317,-6224.917,-6221.343,-6219.1934,-6211.478,-6219.7207,-6210.89,-6204.426,-6224.736,-6241.5693,-6256.696,-6255.0327,-6247.6113,-6246.1562,-6240.2256,-6254.072,-6265.466,-6246.1455,-6229.2246,-6228.3677,-6230.5483,-6229.388,-6226.0083,-6226.874,-6222.085,-6212.732,-6206.238,-6196.8613,-6197.061,-6205.9287,-6213.1636,-6220.44,-6223.354,-6218.4497,-6208.9375,-6209.928,-6214.575,-6203.4736,-6199.912,-6217.3887,-6228.8647,-6230.8496,-6232.4976,-6233.8545,-6241.0337,-6243.9185,-6240.5986,-6230.848,-6213.76,-6217.3794,-6241.8525,-6269.9424,-6292.5713,-6302.6294,-6302.202,-6291.7397,-6280.6387,-6260.315,-6232.574,-6220.0737,-6224.6626,-6242.264,-6245.351,-6237.032,-6237.812,-6230.103,-6227.818,-6231.4907,-6219.387,-6207.9395,-6207.193,-6206.947,-6207.7505,-6206.077,-6195.961,-6196.9614,-6197.761,-6199.776,-6230.598,-6242.5156,-6236.3276,-6251.4917,-6253.3086,-6246.7676,-6249.675,-6249.647,-6254.0576,-6258.4126,-6276.1675,-6290.494,-6264.475,-6253.6294,-6261.5215,-6253.856,-6263.7456,-6267.315,-6258.7915,-6259.9946,-6238.261,-6233.812,-6257.481,-6249.9478,-6243.943,-6247.8228,-6234.6084,-6222.038,-6215.1284,-6214.033,-6207.51,-6200.8574,-6195.7,-6189.4,-6198.2593,-6202.8213,-6210.921,-6224.266,-6227.1323,-6234.557,-6237.4863,-6248.189,-6262.851,-6249.558,-6246.5728,-6279.187,-6296.991,-6291.454,-6284.7007,-6272.626,-6273.7417,-6266.9634,-6250.545,-6251.564,-6233.0493,-6211.8584,-6211.382,-6217.024,-6222.4863,-6217.7607,-6221.49,-6225.5425,-6222.4976,-6225.9683,-6226.15,-6237.3066,-6259.922,-6257.887,-6236.5645,-6226.483,-6228.171,-6224.288,-6210.7734,-6215.6235,-6229.417,-6227.512,-6232.8047,-6233.849,-6233.1753,-6237.4395,-6218.735,-6214.274,-6240.0664,-6255.604,-6248.781,-6232.7036,-6227.707,-6230.9614,-6230.8257,-6233.7944,-6240.0864,-6241.12,-6238.608,-6232.5923,-6231.5366,-6253.3584,-6283.072,-6286.073,-6275.4785,-6286.4736,-6285.711,-6267.776,-6267.3115,-6260.898,-6244.3374,-6217.6787,-6203.752,-6222.7617,-6219.933,-6216.266,-6233.7544,-6239.6226,-6251.4375,-6259.2217,-6251.355,-6243.6177,-6239.4077,-6242.474,-6245.0093,-6238.2803,-6224.1426,-6220.2217,-6227.3784,-6230.848,-6232.403,-6235.768,-6242.0225,-6232.922,-6216.8047,-6215.1523,-6219.2925,-6247.7344,-6274.4077,-6278.068,-6300.208,-6297.7705,-6265.206,-6257.8633,-6259.468,-6254.9297,-6234.334,-6217.534,-6215.913,-6215.893,-6224.8115,-6223.5493,-6229.6587,-6234.803,-6224.854,-6226.952,-6217.7676,-6213.977,-6214.406,-6206.8823,-6212.293,-6212.425,-6225.57,-6236.807,-6227.6636,-6229.7056,-6233.9736,-6250.55,-6273.524,-6276.9604,-6282.9614,-6290.4854,-6284.635,-6284.0054,-6284.551,-6263.199,-6243.984,-6239.66,-6215.7666
-6196.016,-6211.157,-6215.15,-6202.399,-6203.947,-6217.274,-6231.891,-6236.415,-6239.9097,-6253.511,-6265.9854,-6274.521,-6289.5176,-6294.919,-6288.7065,-6283.2207,-6258.8477,-6249.578,-6258.567,-6246.8223,-6247.6377,-6257.9487,-6249.085,-6230.528,-6227.995,-6240.9707,-6237.2417,-6228.79,-6233.568,-6236.8413,-6230.7485,-6232.2905,-6247.116,-6256.624,-6253.953,-6243.577,-6245.924,-6258.4917,-6250.4346,-6231.3003,-6223.0757,-6216.716,-6220.487,-6241.4243,-6245.716,-6235.087,-6233.3574,-6230.2446,-6219.0493,-6214.4116,-6212.009,-6197.044,-6203.5566,-6230.8354,-6235.4634,-6229.793,-6236.4966,-6252.8306,-6268.071,-6275.3296,-6266.968,-6261.7275,-6269.0835,-6258.91,-6254.7173,-6255.5645,-6232.071,-6213.098,-6208.8374,-6224.991,-6239.9,-6231.3765,-6235.387,-6234.4023,-6223.992,-6231.932,-6239.832,-6250.2173,-6249.856,-6234.117,-6231.792,-6227.439,-6223.4517,-6234.3154,-6235.285,-6222.9536,-6227.087,-6244.746,-6256.947,-6270.59,-6269.654,-6249.9434,-6230.587,-6213.743,-6204.3325,-6196.992,-6194.14,-6201.0117,-6213.1606,-6210.4277,-6193.1133,-6197.8447,-6203.8647,-6212.777,-6233.7515,-6237.8936,-6251.674,-6262.9087,-6253.8633,-6253.5386,-6258.349,-6256.494,-6248.33,-6247.284,-6250.7104,-6241.414,-6226.4746,-6226.536,-6230.0493,-6219.391,-6222.1665,-6225.6875,-6202.8696,-6198.373,-6222.3457,-6230.695,-6229.7764,-6231.819,-6220.014,-6219.375,-6233.6836,-6241.467,-6256.54,-6261.686,-6261.2188,-6272.5547,-6264.316,-6261.56,-6274.1826,-6264.724,-6254.41,-6247.1807,-6251.33,-6267.4956,-6254.543,-6252.103,-6258.203,-6243.5044,-6238.955,-6226.309,-6230.5327,-6243.99,-6224.116,-6212.725,-6203.9917,-6201.115,-6212.995,-6217.1274,-6223.577,-6229.7896,-6235.6367,-6241.9424,-6260.219,-6275.2236,-6264.171,-6261.0596,-6256.9624,-6243.5747,-6238.9717,-6234.4185,-6232.2656,-6225.7285,-6223.1313,-6228.523,-6217.1514,-6207.675,-6209.2896,-6206.1113,-6208.785,-6225.2354,-6246.5815,-6257.308,-6253.5845,-6245.9834,-6251.2656,-6254.6973,-6240.666,-6241.2114,-6250.547,-6245.6006,-6235.4873,-6227.305,-6231.166,-6240.3706,-6245.0938,-6252.3325,-6253.9517,-6242.744,-6229.4434,-6227.648,-6240.9517,-6248.857,-6253.6465,-6258.994,-6243.2163,-6234.3257,-6226.9385,-6205.5854,-6210.346,-6226.6255,-6241.9414,-6246.5977,-6240.3384,-6253.19,-6252.8066,-6241.7827,-6238.57,-6233.1074,-6237.984,-6241.1104,-6247.0806,-6258.163,-6258.8784,-6263.722,-6271.474,-6269.2754,-6259.97,-6242.1343,-6232.1514,-6247.4795,-6250.325,-6240.653,-6254.447,-6265.176,-6265.5747,-6269.1406,-6262.94,-6256.452,-6261.038,-6258.866,-6250.199,-6249.044,-6239.258,-6231.112,-6234.49,-6240.0205,-6258.669,-6253.0503,-6238.7397,-6260.249,-6258.6143,-6236.6133,-6232.7715,-6228.5522,-6227.6875,-6226.7744,-6222.6313,-6227.378,-6229.183,-6228.041,-6233.8853,-6233.448,-6225.844,-6223.2983,-6227.402,-6236.2217,-6239.4746,-6236.014,-6236.9834,-6236.969,-6229.097,-6221.4624,-6222.644,-6231.9404,-6240.3403,-6248.5117,-6255.71,-6252.274,-6250.573,-6261.7695,-6275.431,-6280.1064,-6277.136,-6284.2544,-6303.1616,-6309.554,-6301.163,-6300.5234,-6293.363,-6264.903,-6241.5835,-6232.332,-6236.9946,-6245.241,-6252.485,-6267.8975,-6258.2324,-6238.745,-6240.6816,-6232.936,-6223.7393,-6221.241,-6211.549,-6206.239,-6214.48,-6224.529,-6222.333,-6224.5205,-6229.541,-6229.7886,-6232.802,-6237.7334,-6252.934,-6253.346,-6243.568,-6253.817,-6257.654,-6262.375,-6270.4404,-6264.4424,-6280.275,-6313.53,-6330.968,-6332.8984,-6317.7837,-6298.5034,-6278.038,-6257.0474,-6259.78,-6259.657,-6245.177,-6239.281,-6235.1704,-6243.8604,-6243.918,-6234.525,-6244.4824,-6246.8223,-6249.469,-6241.4355,-6219.493,-6217.093,-6211.363,-6213.9834,-6224.412,-6220.1494,-6219.7817,-6218.255,-6218.3247,-6227.137,-6234.7627,-6238.915,-6244.4478,-6249.5576,-6248.695,-6263.056,-6287.2437,-6290.603,-6292.585,-6297.876,-6277.915,-6258.061,-6243.2285,-6215.4395,-6216.1885,-6232.417,-6246.136,-6264.415,-6257.111,-6259.285,-6263.7466,-6246.4287,-6250.2764,-6245.5186,-6231.763,-6243.4707,-6250.003,-6248.7256,-6249.821,-6239.9604,-6231.913,-6231.5195,-6231.39,-6236.5557,-6235.6743,-6236.477,-6242.5435,-6239.034,-6239.077,-6242.889,-6248.177,-6250.124,-6250.4307,-6256.9062,-6257.6606,-6269.948,-6281.849,-6277.4673,-6288.6104,-6294.1523,-6277.2197,-6268.8926,-6270.5645,-6271.199,-6268.3647,-6268.943,-6277.6753,-6278.811,-6286.8853,-6303.404,-6300.0034,-6292.047,-6267.104,-6241.2656,-6256.2593,-6246.3813,-6220.8643,-6232.5205,-6227.738,-6212.2246,-6209.7407,-6203.3364,-6201.073,-6196.908,-6204.4546,-6220.4507,-6217.562,-6213.321,-6217.8296,-6233.5864,-6248.469,-6246.911,-6248.315,-6251.998,-6255.509,-6262.767,-6259.5024,-6256.5747,-6261.9346,-6263.9805,-6266.574,-6259.604,-6246.939,-6249.7744,-6254.5127,-6266.748,-6274.9727,-6257.6445,-6256.238,-6267.3843,-6271.6245,-6275.806,-6264.4966,-6253.9775,-6254.033,-6254.6987,-6254.553,-6254.288,-6267.0356,-6281.058,-6281.292,-6278.2256,-6276.1094,-6272.1216,-6273.7344,-6273.0093,-6251.8975,-6230.1924,-6225.6167,-6229.556,-6232.852,-6234.057,-6235.759,-6234.3247,-6235.589,-6234.7837,-6228.342,-6229.877,-6230.5845,-6236.373,-6250.959,-6256.54,-6250.2275,-6228.047,-6239.604,-6296.7256,-6315.809,-6310.7046,-6317.416,-6305.9805,-6288.6113,-6278.5884,-6269.4146,-6273.0273,-6292.0786,-6283.269,-6239.4927,-6227.4863,-6234.11,-6210.655,-6190.305,-6196.9243,-6204.3447,-6206.5864,-6214.6313,-6204.403,-6194.142,-6215.225,-6225.1875,-6221.7495,-6232.2266,-6238.335,-6238.1934,-6244.816,-6248.883,-6251.433,-6256.2275,-6259.647,-6265.3706,-6266.843,-6267.015,-6262.483,-6254.4756,-6258.8896,-6264.5283,-6270.1045,-6284.0586,-6303.5996,-6309.02,-6300.5537,-6292.868,-6275.631,-6269.7075,-6268.035,-6255.0,-6242.642,-6233.69,-6254.1924,-6262.9404,-6253.061,-6263.305,-6241.9243,-6214.064,-6210.9834,-6201.311,-6204.529,-6205.641,-6200.7163,-6216.234,-6235.244,-6248.903,-6248.3247,-6240.6104,-6237.736,-6234.1787,-6237.086,-6236.067,-6237.7,-6242.063,-6247.104,-6253.6357,-6248.239,-6259.117,-6261.6353,-6264.308,-6288.9326,-6284.6646,-6292.0835,-6307.2773,-6288.6685,-6273.035,-6270.1973,-6267.5747,-6262.392,-6255.3086,-6237.172,-6229.542,-6233.085,-6222.5386,-6219.6675,-6226.047,-6236.8335,-6245.8677,-6240.5596,-6240.9707,-6243.551,-6229.0586,-6223.8105,-6226.6885,-6216.941,-6222.684,-6230.01,-6234.029,-6247.5347,-6249.333,-6255.61,-6260.6826,-6265.554,-6272.566,-6264.5674,-6266.135,-6273.9766,-6278.4673,-6281.448,-6285.6543,-6283.827,-6268.9087,-6264.7993,-6251.8,-6242.9805,-6259.619,-6252.1855,-6237.655,-6253.0093,-6274.71,-6271.216,-6257.032,-6256.5273,-6244.2744,-6254.304,-6272.3325,-6229.0557,-6211.1875,-6225.8525,-6215.7734,-6213.1543,-6204.0825,-6203.0557,-6204.845,-6208.305,-6229.745,-6224.9126,-6226.2437,-6234.9214,-6235.455,-6245.1836,-6245.5537,-6260.3477,-6273.8115,-6275.697,-6282.1533,-6289.979,-6306.1123,-6298.5894,-6283.411,-6277.824,-6263.2563,-6256.9375,-6261.5938,-6281.4526,-6294.965,-6281.6416,-6274.2246,-6274.5146,-6262.6763,-6251.62,-6248.1353,-6246.3926,-6246.311,-6234.9814,-6233.315,-6246.1313,-6233.444,-6217.586,-6225.73,-6238.094,-6225.987,-6207.7314,-6230.135,-6249.9517,-6232.5312,-6235.19,-6256.477,-6259.539,-6269.5796,-6274.9087,-6267.4478,-6275.0317,-6278.394,-6279.3257,-6276.955,-6262.0044,-6254.602,-6254.0166,-6251.5386,-6243.3,-6239.4185,-6242.1167,-6242.572,-6235.7534,-6236.58,-6255.6416,-6257.66,-6255.3364,-6255.209,-6238.458,-6232.3765,-6229.3315,-6238.8975,-6263.716,-6276.252,-6302.1694,-6319.399,-6302.554,-6288.1797,-6274.6094,-6265.4976,-6279.4004,-6279.1724,-6256.654,-6248.932,-6244.932,-6242.3535,-6248.7397,-6240.9463,-6225.5166,-6215.4736,-6217.506,-6225.232,-6221.035,-6218.76,-6220.4473,-6214.6045,-6208.4883,-6215.344,-6225.445,-6219.5957,-6215.1665,-6218.034,-6221.237,-6230.1196,-6232.1836,-6234.8926,-6254.2183,-6286.5166,-6308.966,-6295.215,-6280.9995,-6293.0093,-6304.2773,-6298.746,-6282.6025,-6272.4097,-6256.1196,-6241.6377,-6237.72,-6215.072,-6200.277,-6207.65,-6214.5303,-6217.4053,-6213.634,-6225.3994,-6234.336,-6217.743,-6217.715,-6222.717,-6221.535,-6226.33,-6217.826,-6220.448,-6218.8726,-6210.457,-6239.961,-6250.0225,-6235.35,-6243.964,-6248.5347,-6244.01,-6242.351,-6242.6147,-6239.5996,-6229.3306,-6225.636,-6234.733,-6242.6255,-6243.602,-6250.259,-6249.0845,-6243.4814,-6253.9536,-6254.9077,-6248.4277,-6245.894,-6253.339,-6283.453,-6293.6797,-6292.1445,-6304.694,-6294.8765,-6282.42,-6281.2515,-6265.8916,-6244.8955,-6229.8345,-6220.2676,-6210.358,-6209.961,-6209.2144,-6198.288,-6204.202,-6216.641,-6222.867,-6222.4414,-6219.8643,-6226.823,-6227.836,-6227.499,-6226.855,-6224.638,-6228.03,-6221.479,-6215.013,-6223.611,-6242.9272,-6248.969,-6239.753,-6252.7993,-6268.426,-6275.469,-6287.236,-6279.6006,-6272.7153,-6274.9834,-6267.926,-6256.721,-6231.9585,-6224.6553,-6247.1953,-6260.727,-6268.724,-6262.8228,-6249.69,-6256.6865,-6249.8667,-6231.488,-6231.105,-6225.2324,-6221.5933,-6232.21,-6229.6226,-6243.7324,-6273.2354,-6267.9575,-6266.7563,-6267.294,-6250.1206,-6249.1997,-6244.383,-6240.8335,-6233.4956,-6211.7515,-6222.628,-6247.1235,-6250.1196,-6258.6763,-6283.154,-6297.411,-6304.4,-6298.527,-6274.021,-6259.4004,-6236.668,-6213.6665,-6205.0654,-6194.7866,-6198.775,-6204.5938,-6209.909,-6214.545,-6212.637,-6219.3135,-6226.422,-6235.01,-6239.359,-6238.887,-6229.471,-6220.287,-6234.0283,-6228.8633,-6219.1787,-6229.384,-6234.95,-6246.177,-6252.8154,-6256.3125,-6251.9717,-6247.304,-6261.502,-6261.217,-6262.3413,-6264.84,-6250.1245,-6246.6855,-6254.6216,-6270.454,-6285.4253,-6292.8794,-6295.313,-6296.9434,-6310.6514,-6315.2627,-6290.9463,-6250.779,-6238.163,-6272.362,-6291.1694,-6272.9927,-6261.523,-6250.0366,-6236.5454,-6236.516,-6226.9297,-6215.724,-6218.1206,-6214.9165,-6209.4453,-6214.536,-6208.746,-6201.6885,-6218.118,-6217.624,-6218.046,-6238.953,-6243.455,-6258.031,-6264.834,-6248.402,-6248.7505,-6264.922,-6283.3604,-6276.833,-6261.4644,-6257.281,-6245.8193,-6241.8955,-6238.0684,-6229.9985,-6227.2964,-6214.86,-6207.07,-6215.1147,-6222.13,-6227.8564,-6235.1064,-6232.3423,-6230.5215,-6243.5938,-6255.5737,-6268.244,-6286.8994,-6293.2446,-6281.4966,-6267.582,-6265.7134,-6268.2046,-6266.4995,-6258.841,-6253.382,-6254.477,-6239.2207,-6225.8604,-6230.0557,-6213.3975,-6200.01,-6210.72,-6206.5615,-6197.511,-6201.553,-6215.909,-6229.348,-6229.8887,-6234.5264,-6245.595,-6258.002,-6258.6675,-6259.3,-6271.773,-6256.1978,-6247.3955,-6252.208,-6241.91,-6248.1465,-6233.023,-6211.9014,-6230.5186,-6250.793,-6248.582,-6228.7256,-6235.2144,-6244.292,-6230.1714,-6230.148,-6224.1562,-6221.524,-6223.2124,-6218.6494,-6227.802,-6229.9253,-6231.2344,-6245.577,-6263.192,-6274.5034,-6290.3237,-6322.3447,-6336.7217,-6333.6816,-6317.9604,-6295.517,-6293.2266,-6280.9727,-6251.987,-6228.8403,-6220.5923,-6220.73,-6213.114,-6216.501,-6224.4414,-6224.234,-6222.444,-6228.5503,-6243.8423,-6240.736,-6232.5522,-6236.407,-6248.3687,-6252.591,-6233.106,-6221.7236,-6227.2266,-6239.175,-6242.2505,-6231.986,-6230.844,-6234.748,-6241.8735,-6246.986,-6251.7773,-6253.943,-6246.165,-6245.343,-6239.701,-6239.724,-6247.4473,-6233.7827,-6228.702,-6241.433,-6242.9897,-6252.501,-6279.5005,-6298.868,-6313.2964,-6310.2246,-6300.0625,-6311.398,-6304.1416,-6286.07,-6286.6235,-6289.843,-6290.1235,-6283.5547,-6274.68,-6258.6714,-6251.228,-6257.6787,-6256.2114,-6259.7256,-6250.717,-6236.8613,-6246.2104,-6249.2573,-6244.219,-6235.707,-6225.4336,-6221.1885,-6215.712,-6214.868,-6211.1597,-6206.749,-6203.8364,-6196.429,-6205.1284,-6221.2974,-6223.6826,-6224.0767,-6238.6846,-6244.3647,-6233.7837,-6241.4316,-6244.772,-6241.773,-6248.008,-6241.7773,-6242.5103,-6241.5005,-6235.0254,-6235.7095,-6235.484,-6244.7974,-6244.0913,-6245.948,-6250.7373,-6241.5156,-6250.4697,-6256.0435,-6254.7817,-6259.2837,-6256.1636,-6261.7715,-6264.266,-6264.452,-6273.013,-6266.703,-6256.293,-6259.44,-6263.052,-6264.3086,-6276.7603,-6288.148,-6276.205,-6267.6436,-6277.746,-6276.0283,-6273.245,-6273.8247,-6243.441,-6225.1123,-6250.427,-6268.964,-6275.2373,-6273.2075,-6264.2725,-6266.7417,-6262.037,-6255.6455,-6254.3794,-6245.0933,-6239.644,-6235.971,-6230.081,-6225.924,-6225.241,-6226.1436,-6225.0356,-6234.2183,-6246.693,-6251.9487,-6263.4487,-6269.211,-6259.1816,-6254.7876,-6248.771,-6237.1,-6233.5747,-6232.6626,-6242.414,-6245.412,-6238.6567,-6245.819,-6242.97,-6240.984,-6251.2734,-6256.2207,-6261.7246,-6262.5015,-6266.6997,-6276.0894,-6277.589,-6278.7173,-6275.765,-6268.8643,-6270.7837,-6264.5684,-6244.3525,-6236.538,-6230.753,-6221.5767,-6230.9883,-6240.1816,-6236.546,-6234.35,-6239.2607,-6247.23,-6242.0093,-6236.761,-6237.6514,-6227.998,-6225.5757,-6223.842,-6219.419,-6230.562,-6237.2554,-6235.8433,-6240.508,-6252.0044,-6257.5347,-6258.732,-6276.963,-6291.923,-6289.3228
