SampleData
0.0,963.6096,603.5006,-6929.1113,-12984.384,-9480.14,-9424.798,-11062.077,-8842.077,-10432.907,-10167.888,-9786.515,-11244.115,-10282.35,-11462.908,-11390.015,-11336.25,-12090.311,-11321.425,-11954.141,-11403.959,-11276.943,-11244.623,-10563.749,-10775.63,-10144.705,-10214.036,-10073.022,-9904.044,-10189.341,-10049.945,-10476.973,-10563.082,-10842.242,-11144.612,-11226.61,-11551.9375,-11509.141,-11615.481,-11544.089,-11398.581,-11300.245,-11000.929,-10856.529,-10588.084,-10405.663,-10273.684,-10152.032,-10182.585,-10180.199,-10311.464,-10462.341,-10648.818,-10870.226,-11038.399,-11239.675,-11363.386,-11450.529,-11465.883,-11412.614,-11333.618,-11174.64,-11010.168,-10820.605,-10638.35,-10489.606,-10364.943,-10300.537,-10274.544,-10312.806,-10398.795,-10523.797,-10681.803,-10836.628,-10996.328,-11135.473,-11249.767,-11316.057,-11321.397,-11291.0205,-11212.55,-11101.497,-10965.016,-10817.539,-10677.156,-10543.578,-10446.136,-10391.708,-10382.698,-10415.768,-10481.266,-10582.481,-10702.0625,-10831.168,-10959.236,-11074.195,-11162.817,-11204.465,-11212.522,-11192.156,-11134.32,-11043.967,-10935.541,-10827.963,-10716.922,-10616.05,-10541.867,-10496.199,-10492.641,-10512.729,-10560.151,-10646.102,-10746.545,-10846.25,-10925.845,-11007.157,-11085.957,-11115.415,-11120.778,-11109.451,-11065.258,-10995.476,-10904.956,-10823.487,-10749.745,-10673.539,-10618.892,-10587.661,-10579.977,-10601.046,-10642.653,-10698.933,-10772.143,-10847.245,-10909.089,-10967.585,-11014.8,-11039.686,-11041.276,-11026.362,-10996.784,-10941.31,-10879.982,-10821.363,-10764.535,-10716.361,-10673.242,-10651.559,-10650.029,-10660.8125,-10684.456,-10718.2,-10765.913,-10813.164,-10862.338,-10910.957,-10942.949,-10964.679,-10970.043,-10961.1045,-10939.497,-10902.468,-10862.09,-10820.147,-10783.446,-10752.0205,-10721.261,-10703.003,-10704.923,-10715.162,-10728.319,-10761.616,-10794.976,-10815.646,-10848.167,-10875.883,-10893.979,-10910.152,-10910.77,-10908.591,-10905.592,-10885.995,-10860.246,-10840.81,-10818.225,-10795.438,-10781.158,-10771.841,-10771.107,-10773.21,-10781.795,-10800.489,-10817.976,-10833.143,-10845.158,-10862.704,-10873.794,-10869.174,-10867.91,-10867.944,-10866.286,-10855.079,-10838.984,-10832.432,-10828.301,-10825.091,-10814.233,-10811.411,-10821.117,-10817.014,-10817.527,-10826.055,-10832.822,-10836.952,-10834.422,-10837.572,-10836.422,-10834.845,-10834.125,-10830.094,-10838.376,-10836.019,-10832.638,-10840.056,-10838.742,-10842.296,-10839.579,-10837.89,-10848.087,-10844.192,-10840.587,-10844.405,-10842.522,-10834.331,-10828.488,-10831.294,-10827.956,-10823.029,-10822.405,-10820.064,-10823.298,-10832.448,-10843.408,-10849.153,-10850.334,-10856.219,-10864.718,-10870.449,-10872.44,-10872.463,-10867.662,-10858.714,-10850.063,-10837.976,-10822.381,-10811.886,-10807.393,-10799.646,-10794.881,-10802.142,-10813.123,-10819.048,-10821.126,-10833.019,-10851.582,-10863.585,-10870.692,-10874.758,-10879.817,-10875.508,-10860.48,-10852.619,-10844.975,-10830.065,-10811.276,-10798.384,-10791.693,-10778.786,-10772.906,-10776.899,-10785.134,-10799.677,-10813.63,-10834.564,-10852.449,-10860.436,-10872.042,-10880.333,-10886.79,-10887.168,-10878.541,-10868.07,-10850.87,-10834.723,-10816.253,-10796.8955,-10786.283,-10775.512,-10771.224,-10771.405,-10776.547,-10796.021,-10812.807,-10829.643,-10849.051,-10859.924,-10873.115,-10883.161,-10882.0,-10878.463,-10872.376,-10863.467,-10851.763,-10831.172,-10806.918,-10791.782,-10779.608,-10769.353,-10766.995,-10769.635,-10781.3545,-10790.621,-10799.697,-10823.829,-10846.23,-10863.31,-10877.237,-10884.84,-10889.057,-10881.851,-10870.239,-10861.024,-10847.303,-10826.208,-10800.959,-10783.114,-10771.699,-10760.141,-10751.6455,-10754.853,-10768.56,-10779.363,-10793.941,-10813.995,-10828.341,-10846.808,-10863.127,-10865.815,-10871.635,-10876.809,-10869.563,-10861.304,-10846.682,-10819.485,-10797.406,-10782.84,-10772.28,-10765.646,-10757.077,-10760.165,-10774.877,-10788.725,-10806.465,-10826.431,-10847.53,-10863.472,-10874.068,-10884.925,-10891.434,-10895.387,-10884.574,-10861.763,-10847.561,-10835.359,-10815.53,-10796.627,-10787.155,-10775.214,-10767.265,-10774.821,-10786.053,-10798.494,-10805.314,-10815.023,-10834.085,-10846.379,-10854.776,-10864.852,-10872.17,-10866.927,-10855.294,-10844.883,-10826.722,-10802.699,-10782.672,-10773.545,-10761.939,-10750.071,-10749.164,-10754.702,-10771.956,-10783.018,-10791.647,-10810.556,-10825.842,-10841.728,-10847.758,-10852.634,-10861.673,-10856.35,-10850.258,-10842.668,-10829.572,-10811.37,-10794.068,-10785.342,-10769.953,-10759.657,-10756.521,-10756.32,-10769.826,-10781.76,-10792.771,-10807.993,-10824.014,-10835.061,-10839.041,-10850.449,-10856.646,-10855.579,-10850.126,-10833.104,-10822.167,-10810.12,-10797.189,-10789.688,-10777.929,-10773.076,-10768.031,-10767.551,-10781.203,-10788.807,-10796.029,-10811.114,-10826.465,-10835.808,-10839.329,-10844.341,-10846.718,-10847.629,-10846.285,-10840.131,-10832.762,-10817.0625,-10807.22,-10808.565,-10798.444,-10782.247,-10775.816,-10782.313,-10792.939,-10796.607,-10799.82,-10811.424,-10825.322,-10833.107,-10839.418,-10844.011,-10846.485,-10846.897,-10840.351,-10835.235,-10824.538,-10809.818,-10805.336,-10799.111,-10794.355,-10790.208,-10781.477,-10782.078,-10788.814,-10797.17,-10805.12,-10811.716,-10821.708,-10831.407,-10836.274,-10840.477,-10848.343,-10848.523,-10844.629,-10848.329,-10843.248,-10823.692,-10806.669,-10800.944,-10798.47,-10795.615,-10798.262,-10802.275,-10808.196,-10812.42,-10809.864,-10818.3125,-10831.14,-10833.048,-10836.327,-10839.082,-10837.797,-10836.877,-10833.535,-10829.816,-10823.654,-10812.404,-10805.269,-10800.559,-10790.366,-10786.734,-10790.744,-10795.109,-10800.899,-10801.409,-10803.676,-10809.763,-10819.06,-10833.19,-10833.713,-10832.3955,-10838.958,-10836.291,-10829.545,-10827.531,-10826.058,-10816.171,-10807.072,-10807.435,-10807.219,-10801.826,-10797.402,-10805.289,-10811.805,-10811.992,-10817.497,-10820.743,-10824.308,-10825.438,-10824.274,-10827.68,-10831.469,-10834.063,-10828.031,-10827.324,-10832.337,-10826.498,-10822.5205,-10815.162,-10812.776,-10820.594,-10815.296,-10813.972,-10818.902,-10821.273,-10826.384,-10821.917,-10820.23,-10822.068,-10816.088,-10819.047,-10827.079,-10826.164,-10824.114,-10828.071,-10829.154,-10828.2,-10826.797,-10820.327,-10820.188,-10819.103,-10816.088,-10824.083,-10832.347,-10833.871,-10834.09,-10843.309,-10845.49,-10840.802,-10844.325,-10834.45,-10828.456,-10832.077,-10830.941,-10839.877,-10843.696,-10838.879,-10839.04,-10840.527,-10840.235,-10842.311,-10845.677,-10846.215,-10846.192,-10844.381,-10848.768,-10850.375,-10844.14,-10847.525,-10856.15,-10857.102,-10849.223,-10848.748,-10849.007,-10850.204,-10861.219,-10855.5,-10854.554,-10867.673,-10868.611,-10866.785,-10861.54,-10861.709,-10868.751,-10868.814,-10868.493,-10868.544,-10871.121,-10877.128,-10884.621,-10886.912,-10884.906,-10886.111,-10877.696,-10877.965,-10890.466,-10886.119,-10883.334,-10886.959,-10889.906,-10892.437,-10884.51,-10884.617,-10890.946,-10891.637,-10892.511,-10891.541,-10895.665,-10895.67,-10891.055,-10898.862,-10907.436,-10908.296,-10909.327,-10912.073,-10908.311,-10904.305,-10909.813,-10913.34,-10912.352,-10910.873,-10910.545,-10911.167,-10912.439,-10912.497,-10906.825,-10907.925,-10911.906,-10908.111,-10905.338,-10904.732,-10905.944,-10904.663,-10904.014,-10909.311,-10911.492,-10913.394,-10914.028,-10911.19,-10912.144,-10911.5,-10910.982,-10911.5625,-10912.305,-10916.609,-10908.972,-10901.954,-10912.167,-10915.133,-10909.152,-10910.456,-10913.031,-10909.521,-10907.07,-10906.136,-10906.494,-10909.087,-10907.668,-10909.947,-10913.999,-10913.263,-10910.88,-10910.009,-10913.096,-10910.387,-10909.476,-10913.24,-10913.835,-10918.314,-10915.79,-10911.644,-10916.235,-10917.543,-10918.332,-10916.2705,-10911.98,-10913.409,-10913.669,-10910.465,-10913.009,-10917.77,-10912.83,-10911.332,-10914.121,-10912.471,-10910.863,-10900.422,-10896.971,-10907.511,-10911.324,-10911.861,-10913.012,-10915.1875,-10913.889,-10910.944,-10916.883,-10920.211,-10919.44,-10921.153,-10921.078,-10920.175,-10920.305,-10922.574,-10925.654,-10927.596,-10925.498,-10923.226,-10924.832,-10918.156,-10913.341,-10922.906,-10925.409,-10918.115,-10918.427,-10923.437,-10924.985,-10925.7705,-10924.027,-10923.532,-10928.324,-10925.728,-10918.719,-10918.024,-10922.459,-10924.561,-10917.362,-10912.469,-10915.61,-10915.345,-10910.599,-10912.159,-10914.112,-10908.364,-10907.322,-10906.456,-10909.34,-10922.7705,-10927.092,-10924.953,-10923.2,-10920.077,-10915.07,-10910.377,-10912.239,-10912.564,-10913.571,-10910.174,-10905.066,-10913.869,-10914.002,-10912.802,-10921.0625,-10915.806,-10911.048,-10912.853,-10913.634,-10914.812,-10915.464,-10920.24,-10918.452,-10914.169,-10913.308,-10910.761,-10914.774,-10914.746,-10910.932,-10908.486,-10904.671,-10904.34,-10900.402,-10905.986,-10912.023,-10907.058,-10909.664,-10904.193,-10903.819,-10911.952,-10905.245,-10907.508,-10914.993,-10909.982,-10903.163,-10906.449,-10916.666,-10920.068,-10912.681,-10903.853,-10913.496,-10918.976,-10909.509,-10914.644,-10913.602,-10906.637,-10912.157,-10914.788,-10916.436,-10913.516,-10910.044,-10911.462,-10911.386,-10913.946,-10910.302,-10910.044,-10917.063,-10916.4375,-10913.661,-10909.349,-10909.732,-10910.991,-10907.214,-10906.59,-10906.754,-10912.433,-10915.255,-10912.541,-10911.856,-10910.3545,-10915.175,-10918.352,-10919.135,-10918.659,-10914.284,-10919.561,-10919.531,-10912.186,-10913.161,-10915.359,-10918.664,-10919.346,-10916.65,-10919.156,-10919.3955,-10915.774,-10917.084,-10918.159,-10916.091,-10916.164,-10917.066,-10917.861,-10920.6045,-10922.564,-10919.682,-10919.051,-10922.683,-10920.409,-10916.4,-10917.806,-10919.819,-10917.963,-10911.821,-10912.165,-10918.997,-10917.322,-10916.818,-10920.953,-10921.271,-10922.454,-10919.309,-10914.824,-10917.395,-10920.497,-10918.089,-10918.901,-10924.391,-10921.323,-10920.74,-10924.8545,-10925.57,-10925.04,-10919.317,-10921.436,-10924.7705,-10916.555,-10911.726,-10914.727,-10918.602,-10913.708,-10912.189,-10919.386,-10922.149,-10922.179,-10915.751,-10912.643,-10917.213,-10916.464,-10915.88,-10916.446,-10915.337,-10913.42,-10911.673,-10912.895,-10917.711,-10922.053,-10914.094,-10910.15,-10921.973,-10920.644,-10914.017,-10916.97,-10914.954,-10916.253,-10920.922,-10921.03,-10923.05,-10923.142,-10917.817,-10916.38,-10919.648,-10919.771,-10918.851,-10917.092,-10920.411,-10924.565,-10920.249,-10920.2,-10918.261,-10919.05,-10925.431,-10922.06,-10924.288,-10926.45,-10920.404,-10917.979,-10920.432,-10925.585,-10921.997,-10920.463,-10923.44,-10917.456,-10914.069,-10916.009,-10918.998,-10914.564,-10909.552,-10915.963,-10917.119,-10920.452,-10923.66,-10911.579,-10915.446,-10932.049,-10926.598,-10921.124,-10928.489,-10924.598,-10922.001,-10923.947,-10917.226,-10919.389,-10920.003,-10913.506,-10918.343,-10919.537,-10918.216,-10921.622,-10920.326,-10919.06,-10915.567,-10914.404,-10918.573,-10920.618,-10921.562,-10920.088,-10923.553,-10925.055,-10918.594,-10917.246,-10917.797,-10919.325,-10916.861,-10911.5205,-10914.115,-10917.127,-10915.243,-10911.406,-10914.827,-10916.563,-10911.9795,-10913.305,-10908.938,-10905.825,-10909.305,-10909.432,-10914.708,-10916.088,-10914.23,-10919.9,-10921.484,-10918.008,-10918.369,-10922.982,-10925.902,-10923.708,-10918.809,-10917.672,-10921.131,-10921.544,-10919.307,-10916.775,-10917.101,-10918.742,-10914.939,-10915.451,-10920.579,-10918.393,-10912.545,-10912.631,-10915.99,-10913.055,-10911.237,-10911.509,-10912.563,-10919.614,-10916.166,-10907.302,-10909.534,-10916.195,-10917.667,-10911.742,-10909.908,-10909.921,-10904.903,-10902.291,-10906.984,-10909.216,-10903.8125,-10907.08,-10913.091,-10913.403,-10910.517,-10906.169,-10909.002,-10908.281,-10910.084,-10915.6045,-10910.006,-10908.735,-10909.014,-10903.145,-10900.769,-10901.468,-10903.174,-10906.155,-10908.745,-10905.785,-10904.465,-10907.843,-10906.666,-10904.608,-10906.068,-10908.71,-10905.815,-10901.87,-10903.449,-10904.913,-10907.243,-10903.333,-10901.481,-10911.194,-10913.119,-10904.211,-10890.235,-10892.013,-10906.317,-10904.906,-10906.427,-10908.082,-10905.048,-10904.698,-10896.077,-10899.769,-10904.752,-10899.329,-10901.341,-10902.319,-10902.376,-10899.446,-10898.238,-10898.899,-10897.518,-10902.845,-10902.227,-10904.547,-10909.445,-10905.416,-10904.466,-10904.304,-10908.217,-10905.501,-10896.182,-10899.2,-10904.038,-10904.149,-10898.201,-10896.253,-10901.408,-10901.514,-10901.289,-10901.439,-10903.43,-10901.987,-10898.092,-10900.104,-10898.976,-10899.822,-10902.907,-10902.674,-10901.897,-10898.783,-10895.811,-10893.009,-10894.917,-10898.113,-10897.25,-10898.157,-10897.382,-10894.54,-10890.62,-10895.801,-10906.388,-10900.62,-10894.036,-10897.168,-10901.714,-10900.417,-10894.511,-10899.18,-10900.544,-10899.005,-10903.211,-10901.253,-10903.348,-10904.688,-10901.033,-10903.561,-10906.318,-10904.298,-10902.749,-10907.693,-10905.844,-10900.271,-10902.751,-10902.281,-10904.829,-10906.713,-10903.922,-10902.964,-10897.559,-10898.266,-10899.432,-10897.333,-10902.671,-10901.927,-10901.566,-10906.713,-10906.031,-10902.296,-10902.301,-10903.511,-10897.501,-10897.204,-10900.158,-10899.983
-10903.807,-10900.217,-10896.61,-10896.063,-10897.273,-10898.864,-10894.301,-10897.425,-10896.003,-10891.031,-10896.609,-10900.227,-10898.906,-10894.99,-10897.301,-10898.251,-10894.972,-10896.311,-10893.49,-10893.373,-10893.59,-10890.512,-10891.988,-10893.426,-10897.723,-10897.083,-10888.808,-10888.74,-10892.397,-10893.469,-10895.225,-10892.601,-10886.785,-10888.431,-10892.729,-10892.282,-10894.296,-10897.436,-10894.091,-10888.514,-10890.244,-10890.719,-10887.502,-10896.192,-10901.072,-10899.208,-10899.281,-10890.752,-10891.633,-10895.571,-10888.542,-10881.387,-10873.965,-10879.831,-10885.866,-10884.834,-10893.518,-10894.111,-10890.493,-10894.219,-10897.654,-10899.192,-10897.233,-10897.161,-10897.282,-10895.115,-10894.137,-10894.696,-10892.499,-10886.902,-10888.765,-10893.092,-10896.294,-10899.663,-10895.006,-10892.192,-10898.282,-10899.731,-10888.642,-10881.885,-10887.503,-10893.259,-10900.182,-10898.948,-10887.143,-10887.67,-10895.703,-10896.253,-10898.743,-10902.246,-10898.886,-10898.907,-10900.708,-10897.426,-10896.354,-10896.879,-10896.864,-10897.842,-10895.857,-10893.593,-10896.299,-10895.338,-10888.272,-10887.43,-10892.44,-10894.625,-10892.484,-10890.208,-10890.274,-10888.623,-10890.263,-10896.091,-10896.567,-10896.519,-10902.255,-10906.865,-10904.098,-10901.296,-10902.346,-10904.728,-10908.724,-10909.758,-10909.102,-10910.9,-10915.376,-10914.831,-10910.14,-10915.1045,-10921.374,-10919.398,-10915.776,-10918.18,-10920.306,-10915.078,-10915.645,-10916.71,-10915.734,-10920.186,-10910.06,-10896.3545,-10897.904,-10890.926,-10879.448,-10881.518,-10884.351,-10882.555,-10880.7295,-10881.298,-10883.603,-10879.179,-10873.023,-10877.224,-10884.507,-10884.887,-10882.254,-10884.069,-10889.648,-10890.668,-10886.531,-10884.431,-10886.658,-10888.81,-10886.021,-10884.682,-10890.576,-10894.898,-10891.812,-10887.665,-10888.612,-10889.278,-10885.872,-10889.689,-10901.543,-10899.806,-10883.584,-10877.7,-10882.981,-10884.634,-10883.463,-10887.131,-10895.146,-10897.795,-10894.465,-10897.895,-10904.453,-10899.888,-10893.563,-10893.286,-10895.55,-10895.853,-10892.47,-10899.535,-10904.137,-10897.375,-10898.807,-10899.277,-10897.862,-10897.59,-10891.9795,-10894.299,-10900.723,-10902.508,-10902.004,-10901.537,-10903.821,-10900.732,-10899.377,-10903.83,-10904.049,-10906.293,-10902.972,-10896.067,-10899.949,-10899.408,-10897.297,-10904.65,-10906.389,-10899.477,-10895.1,-10893.397,-10892.184,-10894.218,-10894.638,-10897.173,-10901.408,-10898.634,-10901.979,-10906.129,-10898.888,-10896.191,-10897.812,-10892.907,-10894.09,-10899.966,-10893.919,-10893.557,-10898.709,-10896.63,-10898.378,-10895.62,-10897.293,-10902.931,-10896.875,-10895.77,-10895.433,-10891.787,-10890.689,-10889.726,-10893.065,-10897.8,-10900.22,-10898.108,-10896.735,-10895.316,-10892.054,-10893.922,-10892.058,-10888.067,-10883.743,-10879.066,-10886.345,-10895.161,-10895.517,-10890.779,-10891.892,-10897.965,-10891.104,-10888.3125,-10896.2705,-10900.731,-10901.217,-10897.16,-10900.947,-10900.762,-10894.716,-10898.972,-10897.913,-10896.611,-10894.783,-10897.017,-10906.581,-10896.946,-10893.565,-10903.071,-10903.947,-10904.872,-10897.831,-10894.667,-10901.338,-10902.625,-10903.89,-10902.904,-10901.684,-10900.101,-10898.205,-10903.456,-10904.011,-10898.732,-10898.666,-10901.703,-10901.779,-10900.123,-10898.096,-10898.885,-10906.587,-10906.639,-10901.416,-10902.85,-10903.448,-10905.964,-10906.508,-10905.961,-10910.209,-10909.56,-10907.826,-10908.114,-10911.38,-10913.791,-10913.701,-10916.364,-10911.681,-10910.675,-10912.093,-10906.255,-10907.24,-10902.404,-10892.955,-10894.616,-10902.8955,-10907.355,-10904.434,-10906.729,-10909.119,-10906.781,-10904.947,-10903.047,-10902.904,-10901.818,-10903.231,-10903.594,-10903.634,-10904.459,-10900.69,-10904.476,-10906.904,-10905.985,-10911.716,-10910.349,-10907.281,-10908.535,-10905.032,-10901.3545,-10904.141,-10903.589,-10899.388,-10903.995,-10907.467,-10906.381,-10907.537,-10909.983,-10913.429,-10911.009,-10906.891,-10908.524,-10911.487,-10909.972,-10906.606,-10908.359,-10907.563,-10906.7295,-10908.024,-10899.329,-10896.474,-10903.116,-10901.838,-10903.078,-10907.218,-10903.6,-10902.369,-10908.084,-10911.879,-10911.172,-10907.478,-10903.054,-10905.761,-10905.685,-10900.032,-10905.966,-10911.238,-10907.093,-10901.185,-10899.233,-10902.767,-10901.212,-10902.9375,-10906.125,-10904.245,-10905.328,-10900.909,-10898.748,-10901.872,-10900.384,-10900.197,-10902.139,-10899.234,-10893.335,-10895.548,-10896.343,-10897.142,-10900.411,-10892.228,-10890.456,-10892.743,-10890.219,-10890.044,-10890.155,-10894.136,-10888.614,-10883.153,-10888.35,-10888.758,-10888.032,-10883.8545,-10881.533,-10883.599,-10884.621,-10886.104,-10882.363,-10881.845,-10882.712,-10883.038,-10887.786,-10890.79,-10893.221,-10893.261,-10895.548,-10896.096,-10892.514,-10889.054,-10884.568,-10896.721,-10906.652,-10904.718,-10909.875,-10908.425,-10911.368,-10923.083,-10932.648,-10934.681,-10928.918,-10931.906,-10924.025,-10914.191,-10923.14,-10931.053,-10937.315,-10935.212,-10920.624,-10902.013,-10907.187,-10930.018,-10919.936,-10906.26,-10910.947,-10914.729,-10915.329,-10907.215,-10918.976,-10938.083,-10948.118,-10983.89,-11016.558,-11041.141,-11083.51,-11105.637,-11103.508,-11106.649,-11107.495,-11105.524,-11124.31,-11152.348,-11157.746,-11143.784,-11168.129,-11231.457,-11201.426,-11107.67,-11114.382,-11191.003,-11245.926,-11267.542,-11268.652,-11283.171,-11332.583,-11374.251,-11400.893,-11406.869,-11363.75,-11367.948,-11396.967,-11397.04,-11441.407,-11458.295,-11406.5625,-11312.6,-11204.488,-11086.359,-10908.265,-10817.018,-10818.185,-10808.001,-10891.736,-11005.345,-11089.791,-11144.814,-11113.412,-11088.709,-11097.108,-11089.57,-11024.932,-10925.6045,-10840.541,-10759.21,-10751.3125,-10769.222,-10786.032,-10816.891,-10734.996,-10617.509,-10529.366,-10457.262,-10423.476,-10319.691,-10217.815,-10176.955,-10153.572,-10191.523,-10186.704,-10127.166,-10075.352,-10050.934,-10081.67,-10142.104,-10290.205,-10408.777,-10405.329,-10388.282,-10366.992,-10370.037,-10324.419,-10208.21,-10120.016,-10032.039,-9989.582,-10036.877,-10076.447,-10032.648,-9978.41,-9935.68,-9878.447,-9838.693,-9723.546,-9600.223,-9559.937,-9518.584,-9485.454,-9450.808,-9441.321,-9441.214,-9422.952,-9384.974,-9311.327,-9321.088,-9316.216,-9216.249,-9131.633,-9086.764,-9066.783,-8981.962,-8950.61,-9011.669,-9001.15,-8997.241,-9031.056,-9093.507,-9193.103,-9227.549,-9177.201,-9088.836,-9005.664,-8932.08,-8855.885,-8797.202,-8678.386,-8479.547,-8358.558,-8343.369,-8395.388,-8422.668,-8303.911,-8233.204,-8327.282,-8419.497,-8437.06,-8396.452,-8328.023,-8263.32,-8230.203,-8279.951,-8374.596,-8408.123,-8393.5625,-8306.079,-8168.2773,-8131.4014,-8170.6143,-8243.299,-8258.968,-8178.434,-8106.88,-8021.987,-8017.7446,-8101.064,-8126.051,-8068.8145,-7946.2563,-7841.8823,-7739.9736,-7655.152,-7636.687,-7644.3247,-7681.3657,-7701.741,-7716.5654,-7722.1294,-7711.065,-7705.5146,-7641.442,-7569.856,-7526.532,-7506.3794,-7529.0225,-7549.672,-7538.1265,-7523.8115,-7557.5312,-7552.4375,-7498.8164,-7476.8164,-7451.2456,-7444.333,-7443.3105,-7471.6885,-7530.6157,-7521.576,-7489.142,-7436.514,-7373.647,-7317.154,-7243.952,-7231.349,-7258.8247,-7298.4927,-7339.0996,-7343.069,-7330.6587,-7301.0957,-7276.8784,-7233.7134,-7183.445,-7177.4805,-7165.3877,-7156.59,-7153.5303,-7138.1484,-7144.992,-7153.128,-7139.2207,-7115.79,-7089.797,-7060.0376,-7033.625,-7011.2305,-6991.621,-6986.8774,-6983.109,-6980.796,-6993.9614,-7012.1963,-7032.04,-7048.3057,-7056.108,-7056.642,-7055.9165,-7057.557,-7049.865,-7037.6514,-7022.3066,-6998.814,-6983.8364,-6969.956,-6946.687,-6928.752,-6917.6504,-6912.654,-6911.4106,-6910.901,-6920.219,-6938.2856,-6956.608,-6967.9443,-6976.304,-6991.446,-7002.971,-7005.3794,-7009.898,-7015.964,-7009.8564,-6995.879,-6986.072,-6977.3193,-6971.137,-6958.5713,-6949.0156,-6959.97,-6966.136,-6969.5674,-6981.329,-6997.034,-7017.1304,-7028.4204,-7042.401,-7062.025,-7074.5054,-7081.224,-7082.6675,-7093.1577,-7099.548,-7086.8877,-7083.3286,-7090.9116,-7092.414,-7086.388,-7082.8545,-7091.2295,-7097.998,-7104.9053,-7122.2217,-7138.593,-7149.746,-7158.278,-7175.4214,-7200.2935,-7216.078,-7228.1255,-7242.097,-7251.9893,-7256.5103,-7258.264,-7256.7485,-7251.986,-7256.2188,-7266.3657,-7269.4424,-7278.1587,-7292.18,-7300.4766,-7310.98,-7325.721,-7343.2554,-7354.281,-7363.393,-7387.0903,-7409.7886,-7427.9604,-7448.5786,-7466.7275,-7478.95,-7478.979,-7473.9604,-7468.3574,-7465.034,-7460.264,-7454.924,-7467.438,-7478.237,-7480.8804,-7496.031,-7513.084,-7522.544,-7532.2383,-7546.6777,-7559.592,-7570.5415,-7582.3594,-7595.103,-7602.93,-7605.376,-7614.4927,-7629.676,-7647.151,-7657.9473,-7666.198,-7673.05,-7666.799,-7671.5444,-7687.9316,-7694.3276,-7702.468,-7714.3447,-7718.5625,-7729.773,-7749.062,-7755.0273,-7760.8965,-7775.942,-7790.494,-7799.8794,-7800.945,-7801.077,-7811.475,-7827.8955,-7831.33,-7840.9575,-7857.9014,-7855.7324,-7858.5923,-7871.835,-7884.415,-7894.838,-7900.619,-7909.138,-7915.4194,-7921.998,-7936.029,-7951.061,-7957.916,-7964.868,-7972.4614,-7975.875,-7988.562,-7995.5493,-7994.407,-7995.4473,-7996.5513,-8007.2046,-8013.588,-8014.907,-8023.8496,-8032.101,-8033.56,-8035.257,-8044.596,-8049.2007,-8053.424,-8065.4966,-8079.3516,-8091.9214,-8092.6567,-8094.248,-8100.3955,-8099.925,-8102.1655,-8106.548,-8114.87,-8120.0527,-8120.8267,-8129.945,-8137.3354,-8141.1597,-8140.9136,-8145.1177,-8159.6274,-8170.85,-8181.738,-8184.7544,-8186.215,-8195.103,-8202.252,-8218.781,-8235.058,-8241.29,-8249.211,-8262.776,-8279.623,-8289.918,-8295.7295,-8299.54,-8298.298,-8299.592,-8303.683,-8305.655,-8315.178,-8335.419,-8349.764,-8351.366,-8348.618,-8364.146,-8408.128,-8458.81,-8501.234,-8535.541,-8586.379,-8658.263,-8686.185,-8670.442,-8696.038,-8729.661,-8692.395,-8648.011,-8635.695,-8608.391,-8571.011,-8529.886,-8518.631,-8562.452,-8591.978,-8600.106,-8620.508,-8673.997,-8761.134,-8819.446,-8830.592,-8827.056,-8861.106,-8876.285,-8842.287,-8880.53,-8878.722,-8780.426,-8730.64,-8677.074,-8674.005,-8797.255,-8955.709,-9193.916,-9359.795,-9229.657,-8973.705,-8712.915,-8485.022,-8363.823,-8286.613,-8264.319,-8266.687,-8226.64,-8198.804,-8220.969,-8336.608,-8465.671,-8494.537,-8460.461,-8386.276,-8302.571,-8310.664,-8429.547,-8555.641,-8618.681,-8576.483,-8462.013,-8326.896,-8174.3096,-8064.9766,-8010.7007,-8067.5034,-8154.035,-8145.5854,-8126.9507,-8015.2476,-7865.3745,-7830.2427,-7859.202,-7919.4004,-7937.611,-7982.859,-8169.42,-8345.844,-8296.438,-8106.244,-7954.0176,-7819.516,-7803.262,-7837.748,-7759.65,-7721.7217,-7747.7705,-7829.6157,-7982.2236,-8042.5596,-7914.8774,-7694.949,-7499.1333,-7290.3076,-7152.427,-7147.1675,-7155.984,-7250.8467,-7462.3477,-7646.8,-7734.0776,-7778.5083,-7772.739,-7616.0537,-7433.368,-7384.1978,-7417.597,-7426.8135,-7416.8516,-7438.1284,-7353.1543,-7242.5137,-7324.3687,-7339.657,-7191.8477,-7123.6655,-7100.9683,-7086.628,-7081.719,-7090.49,-7168.782,-7166.544,-7091.5073,-7034.0654,-6962.5083,-6974.7705,-7043.697,-7078.3345,-7101.9824,-7117.7715,-7101.2876,-7045.7124,-6996.637,-6961.1235,-6923.548,-6890.5522,-6879.74,-6902.012,-6944.9,-7015.96,-7087.391,-7160.57,-7244.65,-7272.009,-7286.982,-7382.7114,-7475.3833,-7462.59,-7422.7266,-7396.89,-7280.6704,-7046.442,-6840.719,-6797.271,-6776.835,-6687.011,-6621.493,-6588.1343,-6612.4053,-6628.961,-6595.7793,-6587.727,-6580.8945,-6619.81,-6713.91,-6785.8447,-6815.5947,-6813.765,-6806.184,-6814.963,-6869.598,-6901.176,-6874.9497,-6835.814,-6784.4673,-6787.359,-6806.0356,-6773.914,-6760.222,-6738.529,-6700.572,-6686.5063,-6667.319,-6655.099,-6653.0503,-6657.832,-6676.7524,-6687.52,-6707.808,-6739.2607,-6763.623,-6788.861,-6807.596,-6823.471,-6834.014,-6824.4375,-6805.264,-6785.8584,-6761.1597,-6727.9824,-6701.201,-6685.199,-6667.4272,-6654.8096,-6649.911,-6647.5693,-6651.03,-6664.397,-6686.0176,-6703.0864,-6715.084,-6722.2695,-6727.416,-6739.6167,-6740.2344,-6729.234,-6717.3613,-6700.44,-6688.258,-6666.2573,-6636.323,-6617.4927,-6593.562,-6581.427,-6587.3394,-6588.932,-6605.4556,-6638.095,-6663.665,-6679.381,-6700.193,-6727.6777,-6739.1724,-6744.8247,-6758.2275,-6768.324,-6770.967,-6762.8223,-6756.0806,-6752.1934,-6749.0674,-6752.6514,-6739.996,-6721.8887,-6728.1787,-6744.581,-6752.9336,-6766.043,-6798.1064,-6833.5073,-6874.2046,-6911.803,-6924.489,-6940.0444,-6963.564,-6978.531,-6987.1694,-6994.159,-7003.936,-6997.57,-6991.915,-7000.5527,-6988.476,-6985.0347,-7002.0967,-7005.7437,-7013.8525,-7027.6226,-7049.8457,-7086.076,-7106.4473,-7130.8765,-7173.183,-7196.608,-7204.9316,-7220.5674,-7238.616,-7252.911,-7264.4634,-7265.2656,-7255.986,-7254.955,-7257.655,-7260.11,-7277.405,-7282.672,-7265.9346,-7273.5605,-7291.2046,-7298.328,-7313.733,-7322.3647,-7330.67,-7343.6772,-7352.4043,-7362.329,-7370.1377,-7388.865,-7404.812,-7403.2803,-7407.007
-7413.394,-7413.499,-7414.569,-7419.6235,-7431.239,-7445.1597,-7454.446,-7472.23,-7496.5317,-7520.663,-7545.275,-7553.501,-7556.289,-7556.752,-7563.019,-7589.133,-7593.7354,-7592.145,-7607.4253,-7609.313,-7613.6685,-7624.1274,-7626.892,-7632.02,-7639.977,-7642.7183,-7641.2593,-7655.2705,-7680.3535,-7689.969,-7688.8945,-7699.875,-7716.6875,-7723.626,-7737.319,-7756.713,-7765.86,-7768.748,-7774.7295,-7792.881,-7807.9062,-7823.3823,-7844.5435,-7852.6636,-7867.244,-7887.9443,-7893.6235,-7904.82,-7937.1,-7948.1167,-7929.235,-7935.2905,-7955.8706,-7978.3647,-7999.797,-8002.7417,-8009.368,-8005.3623,-7985.3247,-7961.7036,-7947.38,-7951.0757,-7934.429,-7923.407,-7922.6577,-7906.946,-7922.8467,-7950.414,-7980.1978,-8029.174,-8067.8965,-8093.895,-8101.8384,-8128.7417,-8204.5205,-8352.152,-8537.245,-8638.957,-8744.18,-8787.217,-8658.72,-8610.415,-8576.982,-8507.494,-8569.747,-8561.957,-8492.644,-8498.845,-8431.542,-8312.612,-8233.377,-8181.8516,-8148.025,-8086.0874,-8058.8315,-8127.58,-8217.412,-8326.789,-8409.711,-8410.413,-8337.747,-8177.6265,-8053.7803,-7994.292,-7961.693,-8018.473,-8119.184,-8242.092,-8360.897,-8464.192,-8597.747,-8636.467,-8522.897,-8421.122,-8344.715,-8145.3735,-7900.1953,-7790.716,-7747.005,-7593.55,-7471.2856,-7554.515,-7608.38,-7627.6987,-7734.402,-7794.3613,-7826.365,-7786.063,-7762.612,-7849.9155,-7873.567,-7932.1094,-8048.0,-8079.354,-8083.8047,-8139.5923,-8132.3,-8054.5146,-8004.9507,-7852.1865,-7753.087,-7746.1187,-7734.5645,-7850.126,-7835.319,-7721.1504,-7665.4966,-7618.9155,-7609.3823,-7480.962,-7360.9473,-7203.738,-7007.3384,-7086.5566,-7244.942,-7451.244,-7683.587,-7783.7354,-7967.1787,-8091.491,-7978.7285,-7872.5,-7802.609,-7696.9805,-7559.937,-7365.5874,-7241.958,-7177.3125,-7081.793,-7052.3477,-7032.7744,-7021.1797,-7013.154,-6921.1577,-6966.5474,-7179.3315,-7287.7656,-7171.2607,-6847.9604,-6661.2764,-6928.8657,-7299.7305,-7396.4893,-7311.312,-7252.3086,-7380.0283,-7547.095,-7603.4146,-7551.5923,-7361.7104,-7256.8687,-7166.079,-7020.6055,-7028.378,-6968.618,-6851.2065,-6895.7974,-7104.711,-7417.263,-7690.0454,-7826.406,-7658.2036,-7269.0605,-6974.886,-6975.3564,-7148.5376,-7057.8433,-6856.236,-6809.8735,-6669.709,-6553.1646,-6673.5347,-6810.0137,-6877.032,-6926.9795,-6804.0854,-6593.302,-6589.9863,-6686.3125,-6636.751,-6458.789,-6375.5835,-6543.128,-6749.394,-6762.237,-6687.4976,-6832.3145,-7276.704,-7556.7715,-7556.974,-7583.618,-7446.481,-7157.9253,-6942.463,-6752.0337,-6701.5195,-6711.726,-6655.149,-6664.6895,-6802.5923,-7013.2393,-7070.5933,-6978.869,-6905.563,-6765.5737,-6629.8984,-6676.7983,-6804.6357,-6815.425,-6762.9336,-6808.0635,-6897.8604,-6959.715,-7002.377,-7000.7676,-6949.0586,-6902.4614,-6868.156,-6777.0767,-6683.2705,-6702.781,-6822.5664,-6909.224,-6861.043,-6755.1465,-6687.327,-6680.7915,-6707.485,-6690.6255,-6683.2646,-6718.112,-6680.804,-6598.607,-6550.7505,-6529.5396,-6521.5615,-6498.076,-6500.219,-6535.1753,-6552.2593,-6578.061,-6617.0967,-6632.499,-6607.382,-6588.191,-6628.9487,-6719.6367,-6799.1006,-6873.61,-7007.407,-7057.4937,-7007.6284,-7103.4614,-7312.4814,-7368.358,-7202.1934,-7062.6807,-7020.928,-6926.892,-6832.724,-6735.329,-6611.9697,-6488.018,-6362.973,-6307.8906,-6287.836,-6416.1963,-6695.8076,-6695.7847,-6479.698,-6432.482,-6411.6504,-6322.17,-6314.748,-6328.8726,-6341.42,-6365.474,-6358.1855,-6373.727,-6411.5483,-6463.1772,-6515.4634,-6540.648,-6562.571,-6583.615,-6613.4653,-6624.4272,-6620.768,-6629.9316,-6622.99,-6612.4927,-6599.662,-6575.9395,-6557.4473,-6553.0493,-6556.679,-6552.313,-6555.2183,-6571.958,-6594.0947,-6628.6104,-6660.6816,-6675.852,-6687.539,-6705.769,-6724.824,-6735.832,-6749.893,-6756.6123,-6743.691,-6746.135,-6736.788,-6700.731,-6701.3716,-6701.921,-6647.6636,-6632.033,-6685.007,-6694.506,-6694.913,-6727.752,-6725.431,-6722.054,-6704.963,-6690.997,-6747.8105,-6788.533,-6784.343,-6779.9756,-6765.702,-6744.111,-6747.2427,-6760.4077,-6740.857,-6714.882,-6716.8594,-6748.786,-6764.2935,-6763.054,-6793.7554,-6809.7886,-6813.6206,-6828.975,-6827.137,-6824.3745,-6819.1245,-6816.3623,-6825.86,-6830.3726,-6857.3027,-6903.754,-6908.2856,-6901.9277,-6920.4487,-6908.9478,-6900.9644,-6912.1406,-6895.991,-6904.1973,-6913.3047,-6884.536,-6887.899,-6912.3276,-6920.682,-6916.373,-6899.7134,-6894.86,-6895.433,-6893.738,-6900.3438,-6887.001,-6865.883,-6878.7246,-6892.852,-6901.617,-6944.8105,-6972.4404,-6964.8433,-6977.8794,-6998.063,-7013.421,-7034.855,-7047.7583,-7060.2764,-7078.207,-7086.573,-7078.797,-7068.9854,-7068.3545,-7057.8115,-7043.6484,-7046.7905,-7051.974,-7057.026,-7068.5713,-7089.8574,-7115.3257,-7126.125,-7127.037,-7127.448,-7146.924,-7171.3657,-7169.164,-7168.9233,-7169.7705,-7166.3486,-7162.152,-7143.296,-7152.1826,-7167.4067,-7147.6445,-7149.388,-7168.5767,-7174.5312,-7178.6626,-7181.618,-7190.9585,-7197.0347,-7200.491,-7215.6826,-7236.495,-7256.9497,-7265.1177,-7259.762,-7251.9014,-7246.4106,-7242.811,-7255.291,-7277.2197,-7272.1177,-7265.5796,-7275.741,-7275.195,-7285.8984,-7314.6035,-7331.269,-7365.6226,-7415.11,-7425.184,-7432.288,-7446.5015,-7446.3364,-7459.0464,-7460.8374,-7460.2812,-7466.441,-7449.207,-7445.004,-7459.3267,-7464.2363,-7466.6074,-7469.5923,-7474.9756,-7489.7153,-7512.42,-7523.293,-7525.19,-7539.1704,-7548.8066,-7555.729,-7572.989,-7580.2817,-7580.4214,-7586.8076,-7596.9404,-7599.4136,-7591.362,-7590.4404,-7596.186,-7598.8477,-7591.5854,-7586.5635,-7599.834,-7604.937,-7604.353,-7620.4897,-7629.9546,-7620.8677,-7611.1313,-7615.2197,-7635.7383,-7660.0513,-7671.737,-7676.886,-7682.8228,-7675.312,-7660.7036,-7662.337,-7672.287,-7671.382,-7675.676,-7687.1567,-7688.8,-7696.16,-7704.8066,-7710.047,-7719.205,-7725.118,-7731.8916,-7733.1235,-7738.598,-7749.925,-7756.1313,-7758.768,-7750.979,-7757.9565,-7766.375,-7766.6143,-7776.7397,-7768.1895,-7771.358,-7791.446,-7801.419,-7812.907,-7808.6245,-7805.6514,-7806.3164,-7804.7246,-7814.344,-7816.88,-7816.221,-7806.003,-7804.1484,-7827.149,-7821.55,-7801.511,-7809.068,-7805.236,-7792.9683,-7785.424,-7749.5894,-7748.9263,-7790.6846,-7810.4087,-7838.776,-7840.622,-7814.6587,-7828.483,-7833.3936,-7809.237,-7791.725,-7801.509,-7825.4775,-7799.4067,-7774.321,-7802.899,-7803.246,-7783.4243,-7776.447,-7787.725,-7850.666,-7909.4565,-7950.6494,-8029.2427,-8119.8164,-8190.118,-8271.378,-8309.228,-8242.599,-8193.501,-8153.4756,-8120.4316,-8241.353,-8439.471,-8632.236,-8761.838,-8764.65,-8628.47,-8342.788,-8162.6353,-8110.536,-7982.4487,-7935.6143,-7974.789,-7975.551,-8043.5127,-8163.063,-8258.712,-8392.432,-8447.285,-8301.442,-8141.053,-7998.398,-7811.208,-7628.1255,-7496.956,-7525.092,-7589.2246,-7633.6055,-7812.051,-7989.0176,-8039.8257,-8089.51,-8161.81,-8162.4185,-8202.573,-8241.203,-8033.735,-7726.776,-7522.8843,-7342.3257,-7177.1284,-7322.0586,-7734.5527,-7956.344,-7984.14,-7919.303,-7796.98,-7729.3994,-7673.1226,-7728.515,-7873.006,-7944.954,-7963.624,-7920.112,-7828.8906,-7726.494,-7651.545,-7602.7417,-7639.3467,-7727.9463,-7577.3975,-7428.9346,-7484.394,-7403.16,-7290.538,-7260.186,-7198.036,-7121.5312,-7053.133,-7216.2886,-7555.9277,-7736.2085,-7741.9136,-7630.257,-7525.8145,-7544.918,-7533.1597,-7369.053,-7183.4844,-7132.423,-7129.2114,-7087.639,-7075.2065,-7075.703,-6989.9785,-6946.0835,-7066.2363,-7011.0044,-6845.402,-6917.633,-6934.6724,-6815.1333,-6746.3286,-6724.262,-6725.7534,-6705.036,-6863.8447,-7140.0825,-7324.8325,-7613.634,-7826.6626,-7775.0723,-7671.8755,-7581.0054,-7602.105,-7641.145,-7429.43,-7145.8657,-6969.437,-6837.1226,-6806.8115,-6791.798,-6669.388,-6549.9834,-6454.9585,-6394.842,-6444.255,-6555.0044,-6660.1084,-6704.819,-6714.3037,-6841.8022,-7008.6196,-7096.268,-7196.321,-7215.0635,-7164.182,-7136.5864,-7059.681,-6992.0596,-6950.0806,-7127.8813,-7509.0254,-7584.6323,-7427.036,-7313.6216,-7164.155,-6944.566,-6693.5903,-6555.9565,-6461.4805,-6243.9746,-6200.132,-6538.6777,-6896.4854,-6980.8115,-6994.8154,-7058.0854,-6948.4775,-6675.6206,-6561.995,-6630.411,-6649.6494,-6696.9805,-6771.4146,-6757.585,-6833.374,-6949.3926,-7056.6074,-7219.232,-7254.805,-7187.0576,-7070.5854,-6926.5522,-6857.4844,-6777.0674,-6661.615,-6611.8115,-6678.0854,-6778.775,-6821.4287,-6818.3286,-6853.7085,-6894.961,-6782.292,-6779.806,-6959.0796,-6935.397,-6855.789,-6873.762,-6787.575,-6649.973,-6590.9775,-6561.3823,-6471.2124,-6391.876,-6501.3457,-6669.2437,-6683.9404,-6704.6396,-6768.6255,-6809.469,-6821.586,-6704.26,-6672.176,-6712.914,-6597.176,-6500.897,-6457.9204,-6473.751,-6562.5537,-6626.8906,-6679.459,-6675.603,-6708.2505,-6784.638,-6755.8013,-6762.2046,-6848.2163,-6874.781,-6868.9956,-6780.7476,-6525.174,-6325.1406,-6357.2803,-6413.5923,-6356.3555,-6391.0054,-6548.069,-6656.8613,-6740.4775,-6774.943,-6766.163,-6837.83,-6934.7915,-7011.938,-7042.0166,-6963.001,-6825.0527,-6684.368,-6581.8247,-6521.3623,-6469.915,-6426.6025,-6443.805,-6525.6426,-6557.5854,-6554.1753,-6570.6743,-6569.416,-6574.302,-6595.682,-6630.3374,-6654.887,-6633.3716,-6625.0186,-6678.184,-6722.1006,-6711.6274,-6716.8477,-6728.6475,-6717.087,-6704.6553,-6682.0874,-6677.6763,-6671.4585,-6647.6123,-6648.413,-6671.5645,-6701.482,-6740.781,-6804.0444,-6820.356,-6797.5195,-6802.537,-6766.9146,-6727.333,-6703.5107,-6674.7007,-6697.757,-6715.674,-6734.224,-6756.8647,-6734.964,-6736.4463,-6744.299,-6735.046,-6736.79,-6726.5405,-6711.6973,-6692.3633,-6676.1553,-6683.3423,-6704.908,-6740.761,-6783.585,-6799.7554,-6797.214,-6829.7886,-6861.9766,-6859.544,-6857.0327,-6841.487,-6821.744,-6801.3364,-6783.3354,-6787.9565,-6769.286,-6747.262,-6749.824,-6742.491,-6738.583,-6741.231,-6749.868,-6781.3794,-6807.12,-6808.047,-6827.526,-6859.8887,-6883.2715,-6940.557,-7011.9697,-7053.245,-7069.2637,-7084.689,-7083.5737,-7043.4854,-7039.731,-7042.948,-7011.0024,-7022.179,-7019.2026,-6976.324,-6957.829,-6943.2627,-6925.52,-6918.7886,-6923.505,-6924.966,-6952.761,-7035.145,-7120.4355,-7175.525,-7209.686,-7247.383,-7250.4688,-7219.7847,-7200.0195,-7150.936,-7099.248,-7073.463,-7063.684,-7069.196,-7084.9146,-7110.1807,-7088.1943,-7050.332,-7035.0537,-7015.707,-7010.95,-7003.1772,-6997.087,-7020.4194,-7063.586,-7077.5547,-7063.2466,-7077.879,-7085.2266,-7100.1816,-7144.3325,-7162.83,-7167.5737,-7165.8228,-7157.871,-7154.067,-7151.952,-7136.98,-7124.8306,-7159.651,-7192.589,-7199.402,-7220.767,-7272.369,-7312.0083,-7277.4565,-7248.89,-7279.18,-7291.5645,-7281.845,-7301.0005,-7337.929,-7347.6187,-7339.552,-7327.9585,-7315.9404,-7321.829,-7355.1963,-7419.7275,-7499.405,-7592.8086,-7631.9756,-7589.885,-7592.9136,-7588.1265,-7484.724,-7382.8813,-7330.608,-7279.7437,-7207.7705,-7204.5977,-7247.5317,-7246.8467,-7282.88,-7349.2134,-7397.6016,-7414.5107,-7387.791,-7361.756,-7319.611,-7260.356,-7225.859,-7227.952,-7231.095,-7222.0605,-7238.853,-7267.2935,-7304.857,-7361.196,-7428.4277,-7479.7656,-7489.337,-7481.89,-7450.638,-7417.6665,-7424.6006,-7399.777,-7363.2705,-7440.292,-7523.906,-7533.3936,-7568.5576,-7542.763,-7443.2773,-7411.256,-7405.74,-7380.8184,-7382.242,-7385.3047,-7353.455,-7362.6523,-7423.491,-7434.1733,-7381.331,-7328.961,-7330.7114,-7344.8306,-7357.08,-7423.78,-7512.056,-7590.0137,-7638.5635,-7650.9336,-7672.632,-7737.83,-7804.899,-7809.54,-7781.7812,-7728.5386,-7684.932,-7628.107,-7514.8345,-7502.1724,-7531.404,-7570.33,-7692.345,-7736.1294,-7755.3726,-7788.473,-7757.6553,-7677.1147,-7555.147,-7590.466,-7753.2627,-7841.581,-7929.416,-7957.263,-7890.961,-7923.915,-7975.7925,-7925.237,-7833.2363,-7689.9224,-7649.6064,-7706.0786,-7744.6123,-7891.8857,-7919.6685,-7774.592,-7720.3105,-7658.8135,-7543.654,-7501.0806,-7543.196,-7518.723,-7480.3345,-7549.3164,-7595.3965,-7602.1,-7584.572,-7599.8584,-7647.556,-7657.785,-7667.18,-7611.7783,-7526.762,-7410.9663,-7381.9604,-7538.27,-7551.2896,-7486.168,-7477.846,-7433.8423,-7395.379,-7235.9224,-7107.5884,-7157.8984,-7238.6943,-7386.077,-7502.343,-7580.1445,-7741.964,-7904.095,-8053.715,-8153.8623,-8096.109,-7876.7715,-7589.129,-7352.6733,-7155.832,-6928.928,-6924.463,-7226.6855,-7378.1514,-7377.784,-7437.601,-7482.802,-7525.397,-7491.8906,-7514.4424,-7630.175,-7621.164,-7610.885,-7670.035,-7725.526,-7679.323,-7556.074,-7540.428,-7555.7964,-7488.2236,-7369.088,-7350.091,-7442.909,-7434.972,-7391.8193,-7358.193,-7283.8525,-7409.692,-7580.9365,-7403.2334,-7121.0225,-6942.543,-6831.867,-6805.536,-6820.4473,-6981.6875,-7115.082,-7114.6987,-7218.8003,-7308.172,-7278.394,-7176.9004,-7095.75,-7107.246,-7091.039,-7060.7227,-7050.962,-7062.9883,-7129.416,-7200.383,-7193.795,-7064.3647,-6975.0747,-7062.7603,-7097.5967,-6872.568,-6616.6206,-6541.5566,-6624.812,-6782.664,-6832.146,-6853.9624,-6894.9507,-6846.2837,-6878.109,-6914.376,-6867.006,-6872.4175,-6785.239,-6606.1733
-6562.2427,-6729.055,-6910.8857,-6800.844,-6680.649,-6877.0933,-7003.688,-6888.9756,-6769.552,-6727.6504,-6770.832,-6822.545,-6755.881,-6614.986,-6643.7817,-6832.224,-6835.8403,-6718.147,-6823.026,-6991.9272,-6882.38,-6703.6924,-6734.682,-6743.645,-6637.3857,-6623.633,-6675.566,-6738.971,-6775.3413,-6608.0703,-6382.699,-6349.7437,-6426.478,-6453.511,-6389.6675,-6452.997,-6615.141,-6535.5244,-6542.8774,-6878.3945,-7002.12,-6934.9673,-6997.7715,-6906.961,-6662.709,-6588.647,-6657.7637,-6722.0483,-6738.7666,-6725.887,-6725.5215,-6678.132,-6523.428,-6403.0366,-6325.4736,-6206.1016,-6196.141,-6315.179,-6316.5913,-6182.641,-6173.42,-6285.9653,-6386.3794,-6416.2974,-6397.127,-6500.9287,-6507.6143,-6397.168,-6567.8516,-6714.9316,-6664.5693,-6723.274,-6816.019,-6877.276,-6851.0396,-6746.4043,-6704.0527,-6590.6797,-6416.9863,-6239.1973,-6067.8867,-6145.5347,-6309.5938,-6150.914,-5923.1787,-5964.8545,-6103.6465,-6424.429,-6883.423,-7014.494,-6893.592,-6706.7007,-6445.9414,-6385.613,-6579.973,-6545.337,-6295.6685,-6307.78,-6279.8955,-6109.0845,-6110.968,-6072.093,-6046.4277,-6017.8604,-5947.776,-6280.744,-6718.009,-6716.781,-6537.479,-6551.3525,-6668.59,-6665.2407,-6579.1714,-6454.553,-6347.824,-6332.1157,-6384.3076,-6506.1055,-6601.2793,-6662.9717,-6654.893,-6541.68,-6427.3413,-6220.4526,-6066.2134,-6068.474,-5985.639,-5915.9644,-6061.6865,-6276.975,-6324.4526,-6288.388,-6305.272,-6501.791,-6840.1597,-6885.9478,-6848.823,-6876.0586,-6668.9243,-6576.8975,-6540.0264,-6379.6055,-6311.0396,-6176.621,-6122.2314,-6294.438,-6465.059,-6459.715,-6425.081,-6595.532,-6605.946,-6519.7983,-6566.5093,-6389.7427,-6213.94,-6212.543,-6159.835,-6184.506,-6379.7046,-6576.3506,-6661.6143,-6660.097,-6548.964,-6467.296,-6419.874,-6301.3774,-6290.6133,-6339.5874,-6417.1387,-6486.178,-6400.7134,-6329.7974,-6308.238,-6234.8525,-6210.443,-6358.6367,-6569.5273,-6688.3438,-6761.96,-6876.007,-6978.141,-6909.518,-6740.239,-6581.127,-6516.408,-6597.939,-6509.1807,-6283.711,-6242.8354,-6309.14,-6374.0137,-6328.0005,-6243.9067,-6283.646,-6251.4243,-6214.9053,-6272.096,-6180.7266,-6068.5903,-6085.0347,-6101.698,-6127.1733,-6184.77,-6248.4253,-6311.7886,-6348.976,-6317.638,-6259.967,-6273.8364,-6321.035,-6345.7393,-6358.1113,-6367.2925,-6409.4956,-6484.879,-6507.1587,-6452.4087,-6413.5444,-6392.6226,-6364.6304,-6359.236,-6350.4556,-6333.678,-6317.9404,-6311.1655,-6311.8994,-6297.3345,-6299.6304,-6337.73,-6370.7886,-6374.7417,-6391.686,-6424.945,-6415.8037,-6385.453,-6379.391,-6376.1445,-6367.2876,-6363.9688,-6332.355,-6291.412,-6316.2173,-6364.2153,-6370.062,-6387.394,-6406.9766,-6383.9126,-6381.2485,-6365.3594,-6324.2197,-6340.1157,-6350.3516,-6352.128,-6377.909,-6379.931,-6375.0957,-6371.4595,-6402.8867,-6450.151,-6456.5195,-6466.18,-6471.2847,-6485.055,-6505.13,-6484.5977,-6467.9746,-6452.2144,-6427.768,-6401.591,-6370.25,-6385.532,-6432.4097,-6443.7295,-6440.8623,-6466.735,-6484.375,-6500.1245,-6524.1997,-6513.2876,-6504.527,-6514.6235,-6534.8228,-6551.4854,-6531.3853,-6528.219,-6555.3286,-6555.7847,-6534.982,-6523.1206,-6520.2754,-6519.7715,-6524.7246,-6560.1978,-6627.6104,-6669.1704,-6680.521,-6685.4795,-6686.237,-6682.548,-6616.333,-6523.084,-6494.384,-6481.638,-6470.083,-6487.7896,-6504.064,-6521.441,-6560.923,-6618.371,-6644.174,-6618.3594,-6578.5713,-6537.5117,-6511.6504,-6499.385,-6492.7197,-6501.4956,-6528.7676,-6559.4053,-6573.628,-6606.295,-6638.888,-6660.2,-6704.248,-6702.1714,-6676.5254,-6698.035,-6704.7256,-6692.9404,-6718.2593,-6749.5967,-6745.9727,-6727.225,-6699.7227,-6663.0576,-6642.1274,-6643.006,-6633.534,-6616.684,-6647.496,-6690.913,-6697.406,-6699.508,-6725.1826,-6775.8696,-6807.644,-6810.769,-6806.4355,-6790.9624,-6798.364,-6817.9766,-6803.5767,-6780.36,-6785.105,-6796.38,-6790.0825,-6814.9277,-6883.419,-6929.823,-6945.7993,-6946.779,-6920.7153,-6904.6445,-6949.221,-7015.782,-7030.906,-7023.1123,-7029.4316,-7001.6875,-6961.479,-6945.8213,-6926.5005,-6921.052,-6915.374,-6896.0547,-6915.446,-6937.605,-6913.137,-6892.7646,-6905.966,-6922.3013,-6937.81,-6968.871,-7001.485,-7008.409,-6988.354,-6977.523,-6979.6426,-6972.655,-6965.2764,-6961.5903,-6964.5684,-6980.9463,-7008.3955,-7028.4336,-7044.9746,-7075.817,-7076.3677,-7041.807,-7017.1504,-6992.353,-6977.1504,-6982.626,-6964.8037,-6950.2617,-6983.8823,-7000.3096,-6976.2803,-6953.3315,-6937.353,-6947.205,-6969.7017,-6964.4873,-6943.464,-6932.563,-6924.857,-6912.665,-6926.1924,-6942.797,-6925.5664,-6930.078,-6988.5605,-7054.3657,-7086.5005,-7102.822,-7103.7905,-7067.923,-7035.2656,-7010.161,-6989.066,-7006.278,-7029.9014,-7046.544,-7067.996,-7095.0117,-7137.2593,-7147.537,-7142.8374,-7140.295,-7085.0303,-7044.5576,-7064.9136,-7111.1343,-7143.2227,-7132.7134,-7150.6504,-7197.023,-7226.2905,-7239.4116,-7202.0825,-7174.4346,-7209.4004,-7260.8438,-7336.191,-7429.922,-7506.974,-7574.484,-7617.976,-7577.659,-7460.356,-7347.8853,-7253.966,-7201.342,-7215.3574,-7263.0654,-7403.597,-7553.531,-7541.008,-7483.7266,-7503.5864,-7538.794,-7430.2456,-7191.417,-7154.905,-7335.031,-7458.5674,-7531.1665,-7618.118,-7671.549,-7623.6465,-7480.2515,-7341.8765,-7256.6113,-7276.9536,-7360.0435,-7369.2324,-7367.147,-7284.8047,-7099.513,-7118.5254,-7176.481,-7087.8467,-7146.0396,-7297.895,-7340.2227,-7252.8203,-7086.1245,-7029.4585,-7101.183,-7124.4253,-7093.909,-7130.449,-7248.908,-7338.6367,-7323.458,-7388.1973,-7559.266,-7511.11,-7300.6284,-7148.0728,-7116.64,-7314.686,-7481.2095,-7421.229,-7284.3154,-7051.607,-6960.058,-7138.8486,-7254.2173,-7239.0747,-7135.842,-7015.813,-7031.8667,-7225.3433,-7401.163,-7285.377,-7097.9287,-6989.742,-6917.483,-6975.266,-7003.221,-6952.3755,-6943.8164,-7046.1865,-7073.198,-6851.1567,-6757.4937,-6875.36,-6925.5835,-6800.444,-6668.3955,-6849.239,-7103.231,-7140.014,-7006.2974,-6745.9863,-6584.695,-6622.3604,-6703.7285,-6691.6826,-6593.7817,-6594.9136,-6767.9487,-6836.556,-6696.5117,-6662.3345,-6749.214,-6786.5605,-6697.4453,-6541.73,-6543.001,-6565.0913,-6513.0967,-6407.9077,-6188.844,-6150.761,-6471.6934,-6872.576,-6999.957,-7031.3965,-7259.2427,-7321.342,-7068.779,-6849.2153,-6841.26,-6803.667,-6510.2217,-6254.093,-6188.733,-6275.415,-6408.137,-6381.629,-6435.7593,-6518.9614,-6397.331,-6290.242,-6247.9917,-6274.6587,-6323.8013,-6298.5547,-6270.8286,-6237.6865,-6197.5146,-6203.1377,-6338.9277,-6528.2036,-6654.162,-6799.2856,-6896.8706,-6934.974,-7085.0996,-7141.455,-6900.0674,-6725.2896,-6676.887,-6474.181,-6302.0044,-6205.126,-6046.0107,-5933.7075,-5903.6743,-5955.4717,-6023.511,-5973.5947,-5999.6113,-6318.284,-6538.611,-6500.3438,-6505.601,-6454.6714,-6444.93,-6594.6797,-6606.873,-6441.381,-6298.194,-6356.048,-6481.795,-6553.5176,-6566.853,-6413.034,-6329.3267,-6427.6455,-6492.5703,-6470.4688,-6407.9736,-6342.505,-6235.708,-6142.4155,-6141.7173,-6179.5796,-6235.9463,-6280.9316,-6275.4863,-6276.953,-6347.8276,-6342.846,-6178.662,-6172.4863,-6440.9844,-6598.913,-6496.3994,-6416.5435,-6444.7017,-6427.3164,-6412.975,-6538.341,-6709.195,-6736.6562,-6623.3926,-6484.8823,-6402.18,-6366.5205,-6282.338,-6132.8037,-6021.8125,-6193.5396,-6589.203,-6747.1772,-6740.686,-6816.4277,-6718.9233,-6358.6245,-6087.0835,-6216.796,-6539.3384,-6689.219,-6626.987,-6420.1016,-6255.651,-6185.345,-6041.124,-5986.1094,-6080.8086,-6134.007,-6254.5054,-6414.466,-6482.3623,-6516.11,-6505.877,-6513.1895,-6472.741,-6295.321,-6169.1006,-6099.518,-6032.7305,-6012.629,-5984.8804,-5978.694,-6041.2847,-6133.6807,-6208.867,-6279.736,-6357.941,-6409.9756,-6455.3765,-6479.2075,-6480.313,-6462.4634,-6409.0005,-6362.3984,-6313.2124,-6259.666,-6206.792,-6164.766,-6171.134,-6204.9253,-6236.713,-6241.098,-6257.9507,-6307.663,-6350.736,-6406.3164,-6451.4434,-6488.154,-6532.9966,-6534.8105,-6513.492,-6488.456,-6463.6885,-6459.077,-6444.1367,-6421.171,-6408.241,-6401.559,-6389.2334,-6374.926,-6389.8184,-6398.828,-6403.2036,-6441.455,-6482.268,-6526.5737,-6555.0337,-6562.2754,-6593.535,-6620.8457,-6640.6694,-6646.6826,-6624.8027,-6632.389,-6625.7676,-6576.1206,-6536.281,-6486.0996,-6458.592,-6460.622,-6454.17,-6475.7593,-6503.5713,-6524.44,-6556.535,-6585.536,-6606.1123,-6602.1646,-6600.0684,-6598.458,-6567.87,-6543.6597,-6527.1533,-6520.7173,-6526.2964,-6532.953,-6559.182,-6579.592,-6604.2173,-6628.786,-6623.3853,-6631.773,-6644.424,-6654.6045,-6664.8604,-6667.697,-6686.4517,-6697.493,-6719.686,-6733.3013,-6708.312,-6707.2456,-6700.155,-6668.622,-6649.287,-6626.2954,-6582.9966,-6540.686,-6550.845,-6577.295,-6578.4775,-6598.324,-6633.7104,-6657.723,-6668.953,-6683.5815,-6702.163,-6721.369,-6748.0674,-6756.219,-6785.151,-6820.764,-6790.949,-6776.3037,-6783.958,-6756.4976,-6728.916,-6703.715,-6689.739,-6696.845,-6709.0107,-6725.784,-6746.071,-6760.0835,-6763.6606,-6770.0063,-6765.4995,-6752.231,-6753.292,-6766.894,-6787.6797,-6792.254,-6794.4575,-6811.6333,-6824.806,-6844.808,-6856.4644,-6856.8335,-6876.604,-6895.8433,-6911.5493,-6928.947,-6924.6606,-6913.2334,-6918.5273,-6942.749,-6959.055,-6948.0435,-6938.8325,-6942.255,-6943.4536,-6931.5415,-6931.532,-6965.8027,-6994.023,-7003.6797,-7007.9053,-6998.6055,-6982.861,-6972.0605,-6966.3657,-6972.705,-6991.7983,-6998.591,-6990.351,-6986.191,-6985.2544,-6984.52,-6992.1553,-6994.2456,-6977.123,-6965.838,-6964.817,-6988.4976,-7031.0557,-7039.2754,-7050.461,-7075.4517,-7077.7188,-7095.8047,-7118.0576,-7111.9517,-7094.3467,-7085.2705,-7095.224,-7100.622,-7090.8096,-7074.27,-7065.0874,-7069.2993,-7064.4414,-7059.634,-7065.8457,-7079.8716,-7104.0254,-7125.308,-7142.1455,-7156.1465,-7162.649,-7168.2705,-7182.4814,-7195.5244,-7197.3735,-7190.914,-7176.517,-7164.6133,-7157.2383,-7149.205,-7138.5566,-7129.0444,-7134.1914,-7148.967,-7163.6753,-7179.4893,-7208.4204,-7233.979,-7225.378,-7214.364,-7220.688,-7229.253,-7241.497,-7248.0166,-7239.0327,-7225.0317,-7218.883,-7212.6406,-7199.286,-7184.0054,-7178.9893,-7191.748,-7199.76,-7193.4185,-7187.3467,-7198.089,-7219.9814,-7235.925,-7256.103,-7276.3657,-7295.505,-7313.5894,-7311.881,-7307.848,-7310.3027,-7299.7812,-7283.461,-7284.406,-7295.3247,-7287.5513,-7279.9517,-7289.9507,-7279.5244,-7258.4,-7267.2295,-7292.156,-7317.2153,-7336.1865,-7347.186,-7374.597,-7411.6343,-7416.9326,-7398.098,-7388.0693,-7382.059,-7388.928,-7414.938,-7416.8013,-7394.5107,-7385.367,-7394.796,-7418.124,-7426.865,-7418.9404,-7427.561,-7433.2515,-7434.7627,-7445.3853,-7446.974,-7455.778,-7462.627,-7453.1846,-7454.417,-7464.948,-7479.0977,-7480.928,-7469.71,-7470.3403,-7453.0293,-7428.0176,-7448.5596,-7479.666,-7480.5117,-7474.713,-7476.3564,-7488.388,-7503.4385,-7497.552,-7524.674,-7593.402,-7610.088,-7621.419,-7671.0225,-7700.981,-7718.199,-7735.3003,-7757.581,-7751.4307,-7715.707,-7684.7783,-7633.375,-7611.4253,-7609.757,-7607.3647,-7655.9287,-7687.699,-7683.715,-7694.448,-7713.194,-7717.0415,-7715.0645,-7710.948,-7669.841,-7637.338,-7655.0947,-7727.589,-7860.9136,-8022.289,-8216.877,-8344.927,-8320.207,-8291.222,-8247.818,-8083.049,-7908.094,-7813.178,-7805.9,-7807.254,-7763.253,-7730.397,-7678.6035,-7620.2593,-7618.924,-7718.14,-7838.2197,-7852.84,-7892.143,-7968.5293,-7967.9824,-7908.545,-7797.856,-7619.2754,-7388.4683,-7277.272,-7303.223,-7338.1953,-7379.939,-7409.998,-7449.0522,-7439.128,-7447.8154,-7598.8076,-7723.4463,-7796.8013,-7811.2524,-7671.181,-7472.9956,-7289.487,-7118.848,-7050.433,-7141.012,-7284.1104,-7426.731,-7529.5903,-7617.864,-7709.0713,-7664.88,-7631.44,-7636.7256,-7571.108,-7595.3433,-7669.2817,-7754.8,-7786.082,-7582.6826,-7254.9297,-7031.207,-7079.1016,-7228.975,-7272.964,-7309.304,-7250.4575,-7078.0083,-6996.257,-6998.2905,-6959.3467,-6855.8325,-6869.841,-7105.2446,-7247.015,-7141.293,-7007.5093,-6855.135,-6780.8447,-6871.3164,-6921.1636,-6990.0435,-7079.6714,-7140.6377,-7209.094,-7160.7363,-7051.0547,-6932.0757,-6857.2847,-6894.2754,-6945.837,-6954.068,-6942.9897,-6993.6675,-7003.872,-6949.7476,-6987.7856,-7008.1963,-6897.0845,-6744.221,-6627.915,-6567.644,-6602.2266,-6686.6875,-6736.526,-6694.6816,-6546.3535,-6499.0903,-6607.082,-6727.535,-6908.3857,-7217.2495,-7464.0703,-7411.2144,-7185.7134,-6929.871,-6670.6353,-6452.1724,-6310.229,-6374.811,-6474.372,-6480.798,-6509.835,-6513.531,-6573.779,-6733.523,-6891.314,-6992.2524,-7009.2964,-6943.9697,-6776.854,-6556.6274,-6307.068,-6169.0327,-6246.725,-6390.04,-6643.9385,-6893.482,-6905.9204,-6829.6353,-6719.212,-6599.9106,-6529.4507,-6376.1245,-6226.452,-6229.416,-6287.3076,-6300.354,-6286.8574,-6320.736,-6376.827,-6384.762,-6375.3877,-6406.789,-6452.2427,-6503.099,-6600.006,-6646.565,-6614.7466,-6566.196,-6504.5195,-6464.8516,-6431.0923,-6524.4756,-6805.0396,-6969.9443,-6941.5776,-6911.781,-6829.995,-6643.5996,-6568.343,-6593.2534,-6556.084,-6580.5903,-6637.8755,-6687.5254,-6771.755,-6701.239,-6588.671,-6548.578,-6463.4937
-6404.397,-6409.122,-6467.4595,-6460.075,-6398.086,-6357.277,-6239.05,-6280.3477,-6464.374,-6476.03,-6360.207,-6180.5635,-6046.0713,-6049.737,-6157.1426,-6272.491,-6297.209,-6298.9634,-6288.5894,-6277.1055,-6283.202,-6288.582,-6344.1934,-6400.762,-6439.505,-6497.8013,-6557.8374,-6595.5415,-6655.7896,-6809.6084,-7053.4937,-7249.1797,-7067.928,-6773.426,-6797.9126,-6716.6606,-6527.5,-6544.273,-6503.0195,-6389.9727,-6301.4062,-6190.0605,-6147.461,-6233.8047,-6359.894,-6348.8384,-6210.5312,-6125.711,-6159.037,-6193.7856,-6194.2134,-6231.0435,-6244.3413,-6234.104,-6216.169,-6211.3413,-6270.9775,-6290.12,-6308.6357,-6363.3413,-6371.31,-6397.8174,-6422.038,-6410.469,-6406.0493,-6392.1104,-6382.863,-6372.256,-6356.5713,-6358.206,-6355.373,-6355.82,-6371.0537,-6394.194,-6422.6523,-6443.782,-6464.1943,-6478.891,-6487.051,-6498.793,-6516.8364,-6535.8945,-6531.4478,-6556.2656,-6607.031,-6598.7017,-6620.196,-6688.4277,-6692.991,-6693.613,-6672.912,-6621.733,-6699.62,-6767.8496,-6788.912,-6949.7456,-6966.882,-6752.3306,-6549.245,-6360.33,-6283.0796,-6305.9673,-6344.064,-6372.0,-6320.163,-6299.713,-6290.7944,-6278.706,-6292.6226,-6270.966,-6273.2017,-6269.5303,-6281.816,-6308.2734,-6308.7124,-6347.5244,-6393.472,-6452.3237,-6489.9556,-6505.289,-6542.291,-6559.7354,-6576.323,-6570.1787,-6549.86,-6541.7812,-6518.041,-6481.629,-6445.4194,-6442.7383,-6441.784,-6422.7124,-6417.011,-6412.852,-6408.978,-6411.325,-6431.236,-6464.9814,-6498.1885,-6521.617,-6530.176,-6541.4043,-6551.2417,-6556.4463,-6550.0234,-6532.186,-6517.5654,-6491.7114,-6467.0483,-6453.8247,-6439.5337,-6425.3716,-6414.118,-6415.824,-6432.6343,-6457.334,-6488.4004,-6538.224,-6587.1616,-6606.269,-6631.196,-6661.97,-6660.627,-6636.8716,-6620.4,-6616.691,-6594.3906,-6564.294,-6554.4595,-6545.575,-6536.577,-6540.074,-6537.7886,-6529.8022,-6540.0283,-6544.8438,-6543.9756,-6553.504,-6574.8945,-6631.809,-6666.5376,-6661.178,-6669.2993,-6681.7935,-6684.5396,-6666.737,-6640.691,-6604.889,-6575.46,-6574.3,-6559.2524,-6553.2754,-6563.331,-6574.958,-6596.0254,-6598.003,-6600.105,-6620.7085,-6648.2295,-6654.863,-6656.0444,-6687.373,-6707.6987,-6714.141,-6719.7397,-6722.0957,-6716.2314,-6703.168,-6706.095,-6712.1465,-6728.87,-6737.261,-6735.829,-6762.02,-6766.3125,-6753.0625,-6758.7344,-6756.5645,-6754.1245,-6757.554,-6753.5044,-6764.7544,-6787.1777,-6791.7393,-6795.9077,-6801.2363,-6799.56,-6794.9844,-6784.9404,-6789.0933,-6797.608,-6799.4893,-6805.6187,-6811.388,-6821.623,-6823.488,-6823.165,-6843.7114,-6855.762,-6845.9297,-6848.2065,-6873.0176,-6885.183,-6884.828,-6900.6694,-6910.328,-6903.7793,-6890.254,-6874.9893,-6872.2515,-6870.749,-6872.664,-6877.3784,-6883.0337,-6907.841,-6929.884,-6937.968,-6946.2637,-6959.5596,-6975.2188,-6988.918,-7006.775,-7019.511,-7027.577,-7034.9907,-7038.4526,-7037.9443,-7022.9277,-7011.0845,-6999.625,-6983.608,-6990.5674,-7000.884,-7017.67,-7042.005,-7047.9844,-7056.1094,-7055.4478,-7047.0356,-7049.9263,-7057.9927,-7079.927,-7092.0166,-7091.4927,-7100.144,-7120.659,-7129.8936,-7108.228,-7114.1885,-7136.997,-7135.4272,-7136.6665,-7139.3823,-7146.2617,-7135.763,-7126.702,-7142.495,-7138.981,-7141.1924,-7150.358,-7162.6094,-7189.121,-7199.97,-7209.922,-7217.468,-7222.3066,-7225.87,-7219.307,-7218.087,-7212.4404,-7207.281,-7205.368,-7207.03,-7218.2256,-7221.45,-7221.306,-7228.015,-7238.2227,-7240.5737,-7242.2324,-7255.785,-7267.038,-7277.568,-7290.4307,-7296.561,-7293.5215,-7295.7417,-7314.3794,-7327.989,-7327.8696,-7324.521,-7320.7437,-7325.4985,-7348.7275,-7374.814,-7395.7256,-7415.457,-7412.139,-7400.6533,-7397.4604,-7389.037,-7395.075,-7408.525,-7415.704,-7421.467,-7420.365,-7422.7036,-7418.5903,-7411.6353,-7420.6333,-7429.887,-7429.0166,-7425.672,-7435.1846,-7437.9263,-7428.772,-7439.34,-7452.1484,-7452.804,-7447.703,-7447.475,-7455.035,-7454.0376,-7455.596,-7462.298,-7468.377,-7465.906,-7457.558,-7475.5117,-7502.0405,-7505.301,-7494.9478,-7497.423,-7515.6104,-7516.956,-7507.987,-7517.6885,-7540.203,-7544.039,-7521.525,-7514.742,-7526.177,-7535.9683,-7553.732,-7557.664,-7548.3145,-7545.899,-7532.16,-7519.826,-7525.9517,-7534.4478,-7537.1157,-7542.7686,-7557.4834,-7561.474,-7555.9824,-7554.382,-7559.048,-7577.3467,-7577.62,-7558.069,-7561.838,-7577.969,-7595.8135,-7637.5312,-7684.5347,-7697.1104,-7701.0117,-7727.9854,-7748.012,-7748.2695,-7731.154,-7703.2354,-7692.861,-7679.2104,-7636.1323,-7614.065,-7625.6475,-7611.7085,-7589.9897,-7599.2437,-7611.537,-7618.1006,-7616.287,-7613.5693,-7626.6255,-7654.308,-7715.7393,-7787.7427,-7862.6714,-7973.4707,-8051.3086,-8044.5347,-8013.3276,-7976.495,-7920.3164,-7916.8633,-7994.3423,-8065.1206,-8095.419,-8115.1685,-8152.082,-8158.705,-8065.3203,-7952.1104,-7890.686,-7870.93,-7893.2026,-7927.7607,-7903.535,-7793.5513,-7707.2837,-7668.9424,-7634.3096,-7645.447,-7672.638,-7733.966,-7813.88,-7812.6094,-7795.4536,-7841.119,-7921.022,-7987.9937,-8065.01,-8147.4297,-8153.3633,-8086.072,-7973.203,-7836.5796,-7721.639,-7662.4585,-7626.235,-7578.5737,-7599.575,-7644.981,-7588.555,-7499.372,-7451.0034,-7410.5547,-7397.7124,-7424.9424,-7433.547,-7434.385,-7453.442,-7424.5186,-7355.1724,-7370.9175,-7460.6157,-7522.0786,-7600.1475,-7737.1895,-7863.539,-7915.318,-7937.792,-7940.6064,-7826.633,-7706.996,-7664.722,-7577.1333,-7458.342,-7317.6104,-7151.66,-7072.123,-7097.156,-7169.2837,-7291.041,-7462.1787,-7561.9434,-7474.6885,-7308.1377,-7173.6353,-7006.832,-6883.081,-6859.2056,-6824.9604,-6829.7305,-6884.276,-6982.7627,-7163.4434,-7345.401,-7517.4146,-7616.6963,-7653.1943,-7688.932,-7614.1836,-7513.271,-7402.522,-7137.9414,-6922.683,-6972.6323,-7079.198,-7019.6587,-6907.816,-6868.235,-6905.1685,-6970.523,-7020.967,-7073.7163,-7096.941,-7082.644,-6979.2456,-6843.729,-6818.365,-6782.051,-6722.3047,-6716.1025,-6699.8276,-6697.328,-6752.0415,-6767.6543,-6704.5527,-6722.613,-6784.055,-6784.987,-6856.605,-7029.481,-7175.0786,-7237.9043,-7312.478,-7361.634,-7304.4966,-7123.124,-6821.7427,-6657.568,-6634.5684,-6588.1807,-6565.64,-6554.6367,-6618.973,-6746.6685,-6848.4253,-6901.4565,-6908.8086,-6911.998,-6856.767,-6808.7476,-6832.5933,-6838.5093,-6788.0566,-6649.835,-6483.921,-6420.678,-6439.1924,-6460.8833,-6497.898,-6497.997,-6489.8516,-6585.3364,-6688.1997,-6760.531,-6820.541,-6847.8174,-6829.1665,-6721.3975,-6648.5747,-6686.128,-6781.7725,-6859.098,-6816.771,-6762.5103,-6766.2236,-6779.8784,-6819.947,-6842.784,-6912.072,-7101.9116,-7281.5244,-7323.051,-7244.166,-7122.366,-6889.2993,-6678.121,-6693.1045,-6657.152,-6502.8525,-6390.778,-6315.733,-6384.583,-6490.8267,-6509.999,-6538.5493,-6550.6743,-6571.3047,-6608.3984,-6590.4253,-6585.8125,-6664.696,-6802.4795,-6890.6196,-6865.5015,-6750.4824,-6584.4897,-6488.1274,-6463.69,-6455.043,-6499.7036,-6593.1284,-6717.2534,-6699.32,-6385.6255,-6067.7593,-6188.4985,-6555.587,-6634.152,-6578.0205,-6639.443,-6637.296,-6545.8887,-6473.456,-6490.533,-6576.307,-6690.7754,-6783.1084,-6763.988,-6758.126,-6802.574,-6791.2407,-6816.0366,-6858.8184,-6792.0244,-6614.266,-6384.1284,-6289.3623,-6364.115,-6419.133,-6446.1377,-6478.4575,-6471.203,-6465.7607,-6506.8247,-6544.0264,-6640.1343,-6814.8804,-6862.414,-6859.7866,-6871.877,-6772.388,-6639.821,-6434.7046,-6263.0107,-6445.652,-6863.3403,-7065.8604,-6951.0903,-6835.5586,-6729.6777,-6548.065,-6469.946,-6503.569,-6565.8926,-6526.17,-6382.6113,-6351.7754,-6397.7617,-6419.548,-6409.1255,-6393.253,-6453.7656,-6528.3794,-6559.142,-6571.3765,-6557.1836,-6497.237,-6426.7935,-6402.687,-6396.9736,-6430.3745,-6602.7827,-6844.6704,-6957.138,-7005.691,-7081.1885,-7060.245,-7000.8843,-6935.506,-6781.9917,-6613.485,-6561.3955,-6579.529,-6485.0903,-6398.5474,-6392.7275,-6355.671,-6364.9976,-6382.7397,-6401.185,-6470.6123,-6564.833,-6708.836,-6794.654,-6806.8257,-6806.752,-6759.045,-6713.1836,-6662.158,-6590.1006,-6529.854,-6463.4375,-6436.572,-6464.287,-6501.015,-6529.6133,-6527.481,-6505.5493,-6471.2,-6442.44,-6432.5986,-6416.8604,-6412.2354,-6403.8403,-6389.422,-6402.2354,-6442.896,-6530.6216,-6657.3877,-6779.484,-6853.8076,-6879.817,-6886.565,-6875.1035,-6834.2373,-6740.1465,-6638.607,-6572.0537,-6517.7065,-6499.2705,-6476.9165,-6453.895,-6468.41,-6432.7783,-6389.461,-6371.489,-6355.5693,-6404.611,-6451.1826,-6469.572,-6509.212,-6552.962,-6590.104,-6608.168,-6623.9917,-6637.5723,-6652.3984,-6652.5464,-6627.754,-6616.615,-6565.3657,-6504.5317,-6494.962,-6484.17,-6481.5835,-6478.8394,-6465.4746,-6464.833,-6484.5073,-6523.9253,-6548.359,-6585.391,-6635.024,-6658.1875,-6683.1675,-6697.05,-6681.745,-6647.527,-6615.5894,-6609.2495,-6603.4805,-6576.117,-6541.238,-6530.5723,-6527.364,-6516.598,-6520.8813,-6514.3057,-6512.7393,-6532.8584,-6547.796,-6586.731,-6630.3677,-6640.327,-6656.0825,-6683.526,-6690.0474,-6692.004,-6704.4463,-6698.9966,-6679.04,-6675.383,-6680.2275,-6670.7017,-6657.0874,-6644.975,-6634.3086,-6643.411,-6637.223,-6613.7295,-6629.6294,-6658.749,-6665.075,-6668.695,-6693.3486,-6715.545,-6722.511,-6738.155,-6739.4043,-6736.122,-6720.9814,-6683.9287,-6678.9653,-6674.4604,-6663.596,-6670.333,-6672.9443,-6681.8486,-6690.3125,-6701.2563,-6725.413,-6764.1714,-6792.8643,-6790.909,-6809.8027,-6824.0254,-6807.8867,-6808.6025,-6810.803,-6806.822,-6801.956,-6788.239,-6768.7866,-6755.134,-6758.747,-6763.0186,-6769.0625,-6775.234,-6777.7104,-6796.8696,-6830.052,-6859.898,-6873.5864,-6886.168,-6898.2783,-6892.7847,-6887.493,-6885.7153,-6891.694,-6901.9688,-6895.9546,-6887.8984,-6880.6772,-6880.889,-6894.4214,-6903.545,-6913.4146,-6913.6626,-6917.461,-6950.414,-6962.356,-6940.5376,-6943.863,-6968.5386,-6959.1626,-6945.8755,-6966.3306,-6974.5283,-6979.75,-6995.148,-6995.5107,-6992.6323,-6986.6475,-6996.3623,-7015.7314,-7017.054,-7028.2056,-7040.69,-7037.3877,-7037.6577,-7043.5806,-7048.814,-7058.0474,-7073.92,-7089.3076,-7106.8774,-7123.7935,-7131.467,-7132.837,-7133.794,-7130.1934,-7122.5903,-7126.601,-7119.959,-7104.1753,-7116.1436,-7130.131,-7136.376,-7145.403,-7150.534,-7161.1006,-7164.8784,-7166.5366,-7178.136,-7188.408,-7191.2983,-7183.1895,-7187.8174,-7198.0825,-7198.6885,-7203.116,-7190.7373,-7185.505,-7205.044,-7217.587,-7224.482,-7219.0117,-7215.199,-7215.392,-7210.4517,-7221.1387,-7224.155,-7225.7744,-7235.203,-7237.7085,-7248.505,-7260.3037,-7274.792,-7283.281,-7281.273,-7287.7275,-7297.5996,-7302.2183,-7299.071,-7305.2,-7309.046,-7306.172,-7314.5303,-7312.8877,-7310.819,-7318.843,-7325.853,-7332.906,-7337.017,-7342.638,-7348.8228,-7354.2036,-7356.8203,-7359.358,-7372.3853,-7388.3423,-7390.4707,-7385.262,-7392.6606,-7395.257,-7384.7007,-7383.001,-7387.8496,-7386.763,-7399.741,-7446.268,-7464.2573,-7445.7188,-7445.913,-7434.65,-7433.5923,-7454.3525,-7457.2446,-7470.4375,-7476.535,-7479.131,-7497.2466,-7503.2114,-7507.4893,-7498.695,-7482.6367,-7482.1714,-7495.2114,-7506.2314,-7495.196,-7490.1963,-7488.605,-7485.226,-7487.624,-7484.5303,-7501.245,-7518.7197,-7513.8003,-7510.0464,-7521.428,-7538.533,-7538.06,-7532.1196,-7532.1147,-7536.93,-7544.449,-7547.111,-7548.845,-7552.4307,-7561.714,-7556.2495,-7539.973,-7539.5625,-7539.175,-7545.156,-7559.5044,-7562.721,-7566.3574,-7575.418,-7583.608,-7587.472,-7588.0474,-7596.636,-7614.351,-7618.6294,-7608.3594,-7613.2407,-7622.3984,-7619.168,-7612.616,-7600.8584,-7595.803,-7598.878,-7597.8286,-7603.311,-7613.2065,-7619.502,-7624.9863,-7624.5635,-7625.222,-7634.131,-7640.292,-7639.3677,-7634.5503,-7628.673,-7630.231,-7642.186,-7646.7944,-7645.642,-7645.937,-7630.3794,-7621.3413,-7631.993,-7642.9644,-7662.1147,-7677.1123,-7676.666,-7677.147,-7684.8706,-7693.707,-7705.7446,-7723.468,-7716.169,-7709.4937,-7727.7676,-7717.4995,-7700.5005,-7701.6504,-7699.1104,-7688.807,-7673.3203,-7679.9834,-7685.9165,-7687.3853,-7709.686,-7714.716,-7705.7354,-7710.645,-7736.8135,-7770.961,-7793.0503,-7811.799,-7821.5674,-7819.798,-7807.2275,-7796.279,-7799.1123,-7794.6133,-7790.264,-7786.721,-7777.171,-7784.1606,-7809.9,-7835.1016,-7847.4883,-7875.519,-7922.0713,-7941.6597,-7932.9497,-7916.576,-7902.493,-7860.7544,-7795.086,-7796.691,-7825.598,-7798.936,-7776.6987,-7770.5396,-7813.1436,-7983.273,-8159.0044,-8281.832,-8413.218,-8468.867,-8496.701,-8526.137,-8445.464,-8369.249,-8266.6455,-8034.062,-7857.417,-7752.8623,-7658.4434,-7648.9585,-7680.649,-7707.3286,-7717.6885,-7694.562,-7703.715,-7719.7095,-7688.1987,-7665.3535,-7695.8545,-7750.394,-7745.9033,-7728.4473,-7722.227,-7676.6533,-7689.5923,-7752.1187,-7833.4536,-7966.6133,-8084.193,-8167.697,-8215.111,-8173.37,-8028.7305,-7934.4263,-7857.061,-7649.1245,-7531.216,-7525.412,-7512.637,-7488.045,-7411.879,-7450.3765,-7557.059,-7577.9395,-7580.57,-7591.4624,-7622.244,-7620.1177,-7612.768,-7653.7544,-7659.754,-7624.9155,-7573.2124,-7479.554,-7394.972,-7421.294,-7507.75,-7589.843,-7614.1787,-7504.571
-7380.248,-7284.8623,-7233.2417,-7281.008,-7336.257,-7393.49,-7397.7065,-7346.0776,-7339.6606,-7289.786,-7192.798,-7117.1494,-7103.586,-7163.808,-7233.3423,-7297.669,-7310.075,-7285.1587,-7301.9253,-7289.59,-7213.0713,-7262.9277,-7416.351,-7412.4463,-7341.24,-7361.9263,-7376.6455,-7277.6113,-7242.872,-7367.5747,-7315.449,-7187.154,-7229.0586,-7262.2925,-7237.4375,-7171.083,-7120.1733,-7087.3877,-7004.901,-6890.7275,-6747.979,-6703.515,-6751.864,-6810.7256,-6890.134,-6912.6216,-6935.769,-6974.0234,-6968.995,-6986.801,-7009.101,-7013.1265,-7037.848,-7092.6807,-7135.0103,-7152.2617,-7199.7515,-7242.582,-7221.865,-7151.3154,-7070.231,-7023.9907,-6988.03,-6883.457,-6764.701,-6766.304,-6859.037,-6992.342,-7172.0093,-7308.85,-7340.0195,-7334.286,-7341.3813,-7257.7017,-7057.24,-6867.433,-6731.3955,-6639.901,-6609.3154,-6648.536,-6667.42,-6643.3896,-6666.596,-6667.1577,-6651.223,-6704.2646,-6801.9243,-6972.2354,-7191.1934,-7387.8403,-7510.454,-7489.0747,-7315.98,-7051.3696,-6891.9316,-6885.778,-6780.301,-6628.8394,-6603.405,-6608.1313,-6659.955,-6776.729,-6898.2275,-7001.5635,-7044.467,-7042.4985,-6991.935,-6867.7046,-6727.8896,-6677.419,-6666.304,-6637.0664,-6666.9805,-6710.927,-6753.738,-6863.82,-7028.5034,-7113.435,-7090.579,-7116.5503,-7127.8403,-7037.6997,-6956.7734,-6945.5317,-6834.3257,-6621.929,-6547.738,-6478.597,-6416.5015,-6482.2783,-6575.851,-6696.101,-6723.223,-6710.783,-6740.8955,-6757.666,-6799.3057,-6800.596,-6810.761,-6848.495,-6908.7837,-6969.1484,-6941.577,-6924.531,-6905.839,-6848.0283,-6745.333,-6671.3364,-6682.155,-6656.764,-6704.1973,-6755.96,-6751.4395,-6882.313,-6984.6797,-7010.798,-7039.346,-7002.7207,-6969.0703,-6870.2046,-6660.327,-6529.0376,-6472.197,-6432.509,-6514.903,-6623.491,-6680.623,-6797.417,-6902.67,-6990.039,-7063.7104,-7024.218,-6992.2554,-6956.4536,-6833.418,-6741.904,-6651.9854,-6567.8496,-6684.8594,-6915.869,-6988.1895,-6899.0093,-6866.0166,-6977.24,-7020.258,-6966.285,-6910.451,-6759.2305,-6638.755,-6588.4224,-6527.044,-6479.7397,-6409.809,-6409.656,-6429.2256,-6442.284,-6530.5273,-6582.346,-6639.981,-6712.729,-6785.157,-6886.0093,-6916.9414,-6898.1353,-6845.4917,-6797.163,-6775.1064,-6712.855,-6678.21,-6677.9927,-6704.374,-6803.0825,-6950.2764,-7105.9556,-7142.7524,-7048.6665,-6907.473,-6767.151,-6750.2026,-6733.7964,-6627.4756,-6589.238,-6600.316,-6633.068,-6628.9526,-6564.205,-6546.7837,-6533.7925,-6528.359,-6559.634,-6589.9517,-6620.654,-6642.5557,-6656.655,-6650.252,-6653.297,-6689.666,-6715.7095,-6722.818,-6713.1265,-6688.3267,-6670.0723,-6673.017,-6686.229,-6702.7637,-6719.7544,-6721.857,-6697.0522,-6656.7266,-6629.474,-6604.4565,-6582.171,-6581.2637,-6593.138,-6609.5005,-6623.2197,-6644.0415,-6668.555,-6692.248,-6713.9604,-6724.353,-6744.3623,-6766.4707,-6788.1943,-6823.7314,-6828.7583,-6783.6626,-6729.9976,-6680.056,-6639.367,-6623.9536,-6610.079,-6610.5347,-6617.3604,-6602.335,-6614.3755,-6642.705,-6664.4688,-6688.683,-6709.001,-6737.5854,-6761.2896,-6773.479,-6761.717,-6733.7734,-6725.4395,-6726.2036,-6717.521,-6691.4116,-6678.3994,-6678.223,-6663.716,-6657.6,-6656.5312,-6657.965,-6663.6094,-6678.1123,-6705.717,-6721.085,-6737.514,-6757.6006,-6767.453,-6774.4766,-6784.863,-6794.195,-6778.4995,-6757.094,-6752.2925,-6748.598,-6738.953,-6720.8877,-6704.804,-6696.164,-6697.8154,-6716.264,-6739.0938,-6748.946,-6757.581,-6775.993,-6778.27,-6776.3525,-6794.3545,-6813.163,-6809.0054,-6793.716,-6803.028,-6809.027,-6798.8027,-6796.412,-6792.2256,-6793.0503,-6788.412,-6784.2007,-6792.988,-6800.2266,-6826.673,-6859.536,-6875.4316,-6879.161,-6872.895,-6872.227,-6878.0054,-6880.8203,-6875.3525,-6878.036,-6894.7324,-6896.961,-6892.333,-6889.275,-6883.7324,-6883.2163,-6870.246,-6856.587,-6867.3223,-6879.1885,-6890.144,-6908.024,-6919.523,-6932.2393,-6942.464,-6946.033,-6959.0093,-6966.624,-6968.319,-6984.78,-6977.0845,-6954.8,-6971.2227,-6987.0547,-7002.482,-7024.878,-7018.377,-7013.9326,-7004.1343,-6980.944,-6974.686,-6975.3047,-6976.238,-6988.1895,-7009.9175,-7013.351,-7017.977,-7032.108,-7033.3965,-7047.0767,-7059.7314,-7067.887,-7077.5283,-7083.004,-7087.7246,-7072.978,-7069.2534,-7083.8374,-7095.5674,-7107.418,-7110.5215,-7112.9062,-7120.5566,-7135.585,-7148.605,-7159.644,-7172.844,-7176.0625,-7185.1753,-7197.229,-7201.542,-7202.3965,-7202.574,-7206.581,-7206.0215,-7204.8843,-7206.8145,-7220.3667,-7244.2246,-7250.233,-7245.948,-7246.857,-7256.637,-7271.734,-7276.241,-7276.7295,-7282.0625,-7296.046,-7309.2935,-7315.6035,-7327.7217,-7330.099,-7323.944,-7325.1113,-7330.7207,-7339.416,-7340.5474,-7341.328,-7346.3438,-7351.722,-7365.898,-7377.899,-7379.9067,-7381.355,-7387.271,-7389.955,-7390.996,-7398.9536,-7401.2466,-7397.8677,-7397.4624,-7402.4614,-7419.9067,-7432.45,-7437.097,-7450.8306,-7457.546,-7457.0747,-7470.423,-7483.78,-7475.5303,-7466.482,-7471.513,-7469.1333,-7464.749,-7468.1636,-7484.5635,-7504.403,-7498.84,-7508.6226,-7541.1396,-7551.119,-7553.147,-7557.476,-7571.6978,-7585.1714,-7579.172,-7578.29,-7581.3374,-7579.137,-7583.3184,-7609.398,-7634.1196,-7642.5796,-7668.5435,-7684.37,-7674.675,-7645.592,-7611.1987,-7620.9497,-7627.362,-7618.3076,-7637.104,-7661.218,-7692.075,-7709.184,-7691.021,-7683.424,-7692.945,-7682.1,-7690.6143,-7725.3945,-7722.5063,-7744.1807,-7796.6396,-7806.7646,-7802.2476,-7803.197,-7837.956,-7887.0776,-7922.0327,-7948.9883,-7957.87,-8040.924,-8149.6113,-8186.285,-8176.5684,-8093.696,-8080.091,-8118.528,-8081.6,-8145.919,-8225.818,-8203.234,-8126.0264,-7949.6787,-7857.0903,-7828.4976,-7691.3706,-7614.7227,-7615.375,-7578.89,-7552.589,-7579.371,-7654.038,-7749.4116,-7807.088,-7806.403,-7817.67,-7801.515,-7697.4224,-7632.7896,-7637.4424,-7613.638,-7612.0835,-7748.222,-7943.3086,-8019.9985,-7993.2275,-7971.11,-7962.8315,-7940.304,-7894.3335,-7848.7666,-7755.414,-7589.542,-7522.672,-7592.8076,-7688.0337,-7739.3457,-7720.604,-7709.306,-7683.509,-7601.696,-7482.9854,-7325.0254,-7223.7583,-7231.685,-7321.454,-7445.446,-7604.141,-7729.186,-7674.9155,-7530.1104,-7404.158,-7384.0273,-7486.848,-7534.341,-7445.8477,-7311.0444,-7302.46,-7364.6035,-7352.0073,-7313.3633,-7250.0093,-7170.557,-7133.0854,-7117.436,-7065.0547,-7056.251,-7165.0596,-7272.7915,-7330.1235,-7376.9214,-7425.541,-7424.447,-7337.6406,-7276.5806,-7280.2803,-7234.7837,-7179.4463,-7249.021,-7390.7236,-7464.381,-7396.177,-7296.1357,-7239.647,-7159.1055,-7073.7764,-6953.9106,-6886.7354,-6947.247,-6977.6143,-6980.3447,-6998.783,-7011.42,-7022.2935,-7027.325,-7055.183,-7136.3115,-7222.302,-7236.965,-7276.0576,-7339.6587,-7356.166,-7423.035,-7435.544,-7335.4297,-7292.1455,-7316.7446,-7355.4863,-7346.7847,-7222.2603,-7024.314,-6837.9204,-6699.956,-6734.4155,-6972.847,-7104.0303,-7048.8887,-6961.984,-6911.5938,-6922.4307,-6837.8354,-6758.6133,-6858.361,-6977.926,-7049.592,-7060.207,-7040.7827,-7112.851,-7242.391,-7252.2007,-7131.2573,-7025.904,-6939.1133,-6889.753,-6913.928,-6986.7983,-7085.979,-7107.5874,-7018.9126,-6861.0645,-6726.1523,-6720.679,-6790.0454,-6843.6504,-6895.022,-7019.226,-7184.1416,-7285.699,-7237.256,-7049.0303,-6892.4766,-6709.112,-6524.8643,-6587.214,-6674.0527,-6681.442,-6747.0835,-6778.683,-6861.1416,-7004.3613,-7053.89,-6966.7754,-6852.514,-6794.7314,-6714.87,-6710.5474,-6740.0625,-6750.878,-6840.714,-6906.095,-6928.888,-6890.4463,-6848.7827,-6852.279,-6874.5767,-6937.9316,-6966.972,-7190.5117,-7519.834,-7550.05,-7403.9136,-7158.9727,-6825.4614,-6587.4727,-6517.2476,-6478.855,-6460.563,-6598.888,-6782.3438,-6953.4097,-6958.8564,-6778.943,-6787.383,-6921.741,-7019.663,-7040.1533,-6923.7363,-6783.166,-6616.058,-6493.661,-6464.788,-6434.09,-6397.2275,-6428.6626,-6672.6157,-6937.4697,-6964.0615,-6902.647,-6894.671,-6890.1396,-6807.361,-6729.614,-6774.713,-6935.0635,-7081.388,-7069.7812,-7061.819,-7038.1655,-6885.175,-6840.6255,-6814.016,-6686.6177,-6651.8193,-6699.506,-6741.1216,-6768.1816,-6796.679,-6807.099,-6772.5527,-6756.997,-6779.292,-6759.296,-6709.2866,-6695.714,-6681.798,-6643.9717,-6605.9893,-6630.1143,-6725.7974,-6812.541,-6917.7407,-7079.1074,-7254.6694,-7350.395,-7342.763,-7311.3643,-7209.356,-7032.15,-6873.269,-6803.5444,-6846.8486,-6874.578,-6826.0386,-6837.9546,-7002.6963,-7122.6006,-7068.6777,-6935.06,-6715.107,-6590.8325,-6617.176,-6658.542,-6806.425,-6951.469,-6957.869,-6871.65,-6803.298,-6795.4746,-6791.294,-6831.919,-6840.4077,-6829.2026,-6839.4424,-6802.947,-6781.9224,-6765.1865,-6771.6577,-6790.141,-6762.9336,-6746.4434,-6757.1387,-6785.6714,-6806.0444,-6840.323,-6883.0293,-6902.107,-6929.25,-6959.315,-7003.8047,-7039.6265,-7054.389,-7092.3984,-7147.6396,-7185.5127,-7163.267,-7110.452,-7039.565,-6921.443,-6857.6055,-6874.651,-6847.0215,-6787.3257,-6772.667,-6781.863,-6792.4297,-6786.6206,-6796.698,-6872.8315,-6928.0728,-6918.3115,-6918.4473,-6905.639,-6849.242,-6815.0874,-6809.985,-6800.057,-6803.275,-6822.4478,-6836.4917,-6865.0625,-6893.3696,-6894.404,-6910.09,-6930.244,-6942.002,-6957.5537,-6958.1387,-6960.6484,-6951.436,-6933.514,-6927.3203,-6905.577,-6889.422,-6882.3027,-6857.4517,-6832.4336,-6830.058,-6845.0894,-6862.877,-6887.691,-6915.9883,-6940.737,-6961.9355,-6977.8306,-6991.4146,-7001.2173,-7003.1533,-7001.5464,-6997.167,-6980.4175,-6962.889,-6950.876,-6937.871,-6928.562,-6918.8784,-6915.1636,-6914.453,-6913.2603,-6924.9536,-6941.692,-6957.0513,-6969.7046,-6986.7705,-7012.4976,-7028.704,-7031.1714,-7033.579,-7041.8867,-7032.892,-7012.0557,-7009.7744,-7006.077,-6994.592,-6985.09,-6975.965,-6975.784,-6976.134,-6983.615,-7008.561,-7030.7163,-7041.632,-7055.2515,-7072.8203,-7078.765,-7081.6587,-7085.3394,-7088.3364,-7096.631,-7084.7397,-7071.5405,-7082.738,-7086.543,-7082.978,-7080.646,-7083.7534,-7093.384,-7090.5776,-7087.169,-7102.615,-7126.282,-7135.9897,-7137.4785,-7140.392,-7146.8296,-7162.42,-7164.035,-7164.04,-7174.919,-7166.5825,-7152.5405,-7156.5366,-7172.1616,-7176.8076,-7168.1416,-7164.605,-7174.5635,-7192.026,-7193.3003,-7192.875,-7207.784,-7220.6333,-7229.5083,-7235.7363,-7236.68,-7230.202,-7228.354,-7227.4897,-7220.1606,-7222.252,-7214.2373,-7193.6484,-7189.8604,-7209.511,-7238.183,-7249.2627,-7243.9014,-7244.2983,-7263.569,-7284.6045,-7290.8525,-7295.2783,-7294.2427,-7296.463,-7311.5586,-7320.6606,-7321.1978,-7314.461,-7301.6343,-7292.168,-7303.5435,-7333.8193,-7359.067,-7375.384,-7374.3,-7367.9146,-7374.225,-7375.877,-7376.38,-7381.5664,-7391.05,-7405.173,-7412.0474,-7414.655,-7415.6675,-7418.1216,-7420.9473,-7412.1025,-7402.25,-7399.867,-7401.158,-7417.1636,-7443.2773,-7447.7065,-7436.4385,-7441.0464,-7443.361,-7437.0024,-7440.3765,-7441.949,-7445.5635,-7450.415,-7449.188,-7447.89,-7454.0283,-7479.46,-7491.614,-7481.6875,-7473.4785,-7456.292,-7451.224,-7467.8247,-7483.2065,-7492.5977,-7491.95,-7491.131,-7494.0986,-7496.1797,-7505.594,-7518.785,-7524.864,-7524.972,-7523.101,-7517.829,-7516.112,-7521.346,-7522.7837,-7519.958,-7518.647,-7517.6836,-7524.3916,-7539.406,-7545.591,-7552.7935,-7565.4097,-7572.734,-7587.3496,-7590.005,-7582.0054,-7585.9746,-7581.34,-7582.3213,-7588.3047,-7582.3965,-7578.902,-7577.677,-7592.1533,-7602.1343,-7599.278,-7607.2827,-7606.8286,-7614.281,-7628.886,-7636.0815,-7653.038,-7663.799,-7677.0464,-7689.0225,-7682.5786,-7682.092,-7684.465,-7682.9736,-7681.558,-7675.932,-7676.4287,-7683.769,-7686.037,-7682.604,-7683.6006,-7689.333,-7691.03,-7701.6577,-7721.467,-7726.0454,-7725.307,-7736.77,-7755.176,-7771.257,-7776.2173,-7774.498,-7770.3413,-7769.7495,-7776.0273,-7776.3325,-7776.207,-7780.2886,-7780.3516,-7777.7954,-7775.0503,-7777.6074,-7778.8037,-7776.7456,-7784.3955,-7792.8457,-7797.129,-7798.3066,-7799.8286,-7814.9873,-7821.018,-7815.754,-7826.3,-7836.914,-7838.159,-7829.193,-7819.704,-7835.117,-7856.383,-7856.738,-7844.8345,-7848.5317,-7860.143,-7855.686,-7852.4272,-7854.279,-7867.2275,-7880.7466,-7872.0796,-7874.13,-7874.5215,-7874.739,-7898.544,-7902.355,-7898.043,-7894.567,-7888.5283,-7897.8276,-7894.1577,-7887.9365,-7891.2085,-7899.987,-7909.592,-7903.017,-7904.5483,-7916.474,-7927.0303,-7933.881,-7934.5596,-7939.345,-7942.8086,-7946.105,-7950.6616,-7955.1787,-7956.8438,-7951.5537,-7942.5293,-7930.8306,-7934.4243,-7939.6074,-7933.3467,-7937.585,-7934.5933,-7929.3364,-7940.4033,-7950.9517,-7959.792,-7960.837,-7961.2373,-7966.1587,-7962.936,-7964.098,-7967.055,-7968.825,-7964.8193,-7951.6284,-7951.3784,-7957.744,-7965.804,-7972.9165,-7972.474,-7968.7036,-7958.5215,-7962.9595,-7973.7896,-7977.6226,-7993.9297,-7997.543,-7991.2134,-8003.338,-8011.895,-8010.065,-8004.37,-7997.9453,-7997.5933,-7994.006,-7992.548,-7992.458,-7985.7,-7988.9414,-7993.519,-7987.461,-7987.1875,-7990.3433,-7993.7734,-8010.818,-8023.3013,-8018.146,-8019.165,-8023.3823,-8031.434,-8041.1875,-8030.282,-8027.2217,-8032.6655
-8022.408,-8016.084,-8010.624,-8015.591,-8037.216,-8036.1655,-8027.5903,-8031.5474,-8024.4326,-8024.671,-8034.535,-8036.726,-8041.936,-8043.8896,-8052.864,-8061.547,-8054.388,-8050.97,-8048.2617,-8050.507,-8049.622,-8041.3906,-8045.833,-8048.958,-8045.403,-8042.4336,-8048.84,-8056.5405,-8050.7993,-8051.3604,-8059.7437,-8066.178,-8070.358,-8072.319,-8075.302,-8070.335,-8057.4185,-8048.5186,-8047.3154,-8049.496,-8050.989,-8057.3174,-8066.8203,-8067.608,-8060.9404,-8059.516,-8067.2485,-8073.4067,-8072.3345,-8069.913,-8075.631,-8083.4395,-8080.729,-8087.6025,-8103.2554,-8103.608,-8101.597,-8109.3203,-8116.9614,-8109.3823,-8103.0815,-8112.5938,-8115.8706,-8113.5127,-8100.298,-8097.1045,-8124.715,-8130.6587,-8119.186,-8120.59,-8128.9204,-8141.4033,-8147.3145,-8158.4834,-8177.557,-8195.526,-8198.254,-8169.478,-8124.531,-8087.223,-8087.826,-8106.127,-8113.7017,-8126.4473,-8133.6436,-8143.3857,-8165.8003,-8180.019,-8186.9595,-8207.681,-8234.371,-8230.076,-8213.843,-8200.499,-8168.2153,-8140.728,-8160.0654,-8234.475,-8321.62,-8412.768,-8510.849,-8585.247,-8615.6875,-8616.289,-8687.64,-8748.718,-8705.536,-8724.451,-8737.497,-8669.543,-8619.448,-8498.426,-8337.838,-8263.439,-8232.811,-8218.445,-8275.068,-8351.15,-8349.645,-8345.029,-8404.765,-8473.853,-8466.112,-8443.507,-8434.292,-8296.908,-8192.773,-8216.981,-8256.735,-8370.4,-8439.396,-8414.211,-8417.381,-8414.324,-8364.563,-8314.632,-8327.612,-8321.209,-8274.35,-8219.134,-8086.783,-7927.1387,-7801.0454,-7730.878,-7662.6177,-7598.526,-7617.4727,-7640.131,-7700.007,-7828.915,-8010.206,-8209.485,-8274.777,-8300.025,-8341.755,-8349.593,-8359.759,-8287.972,-8199.771,-8151.6284,-8059.7783,-7962.3105,-7889.799,-7939.809,-8084.919,-8118.685,-8092.164,-8015.0244,-7788.6494,-7584.361,-7551.547,-7605.674,-7637.3286,-7674.755,-7714.44,-7643.436,-7569.5513,-7612.4478,-7647.4795,-7633.6865,-7622.757,-7633.4497,-7691.936,-7717.6997,-7666.523,-7618.6265,-7503.1147,-7351.7085,-7297.776,-7277.5103,-7304.2695,-7363.811,-7428.0894,-7520.8315,-7515.699,-7419.54,-7342.4463,-7308.5557,-7294.868,-7294.288,-7354.0757,-7425.479,-7441.167,-7426.2607,-7392.1387,-7333.399,-7310.274,-7301.4775,-7246.5527,-7301.3877,-7476.727,-7612.274,-7732.972,-7745.989,-7578.6733,-7407.1934,-7273.995,-7165.331,-7067.0225,-6955.1675,-6921.122,-6912.9277,-6913.8867,-6974.059,-7003.477,-7077.121,-7215.7964,-7340.138,-7448.2783,-7456.731,-7416.333,-7399.3447,-7400.2593,-7370.445,-7260.485,-7212.6797,-7187.397,-7193.61,-7310.6,-7272.4937,-7137.8325,-7079.027,-6985.8677,-6912.4634,-6880.7524,-6890.8506,-6985.2686,-7060.9087,-7082.8677,-7078.259,-7039.282,-7044.8228,-7151.657,-7258.494,-7314.394,-7314.3022,-7216.834,-7112.5254,-7044.638,-6968.433,-6904.8843,-6856.3555,-6862.7705,-6955.3574,-7052.5596,-7085.7993,-7082.059,-7044.5557,-6971.4644,-6938.3213,-6913.3247,-6866.6465,-6823.668,-6733.063,-6661.1733,-6655.033,-6704.398,-6879.1206,-7075.2974,-7138.1875,-7131.2837,-7191.5015,-7259.7085,-7201.4077,-7145.6143,-7183.4688,-7240.681,-7356.483,-7451.9507,-7417.761,-7344.849,-7189.511,-6896.0264,-6632.729,-6452.324,-6361.287,-6470.701,-6629.2476,-6686.518,-6777.8667,-6871.048,-6871.2256,-6838.9604,-6831.912,-6852.8906,-6832.931,-6793.138,-6743.863,-6666.9365,-6640.0913,-6653.5596,-6684.54,-6694.08,-6687.488,-6714.0283,-6714.9976,-6737.6836,-6778.465,-6801.829,-6853.8525,-6861.211,-6852.521,-6874.6904,-6878.5444,-6884.84,-6914.448,-6986.0547,-7084.104,-7153.828,-7146.436,-7086.2026,-7036.883,-6969.242,-6914.815,-6904.8184,-6883.616,-6845.778,-6847.0107,-6952.3535,-7044.381,-7056.473,-7071.0537,-7038.1396,-6962.4307,-6909.6885,-6927.463,-6985.5303,-7005.257,-7029.442,-7003.5073,-6888.973,-6804.3184,-6786.917,-6776.62,-6746.2476,-6771.9707,-6865.662,-6942.2734,-7023.6646,-7107.046,-7084.7393,-7005.2324,-6944.4995,-6833.847,-6735.9404,-6730.019,-6719.86,-6681.022,-6628.883,-6580.9697,-6596.0835,-6625.431,-6652.4336,-6702.0015,-6748.0513,-6795.7593,-6840.699,-6887.652,-6926.2705,-6940.812,-6948.929,-6965.297,-6986.0312,-6978.6665,-6968.9062,-6959.026,-6939.722,-6945.107,-6913.364,-6918.278,-7046.693,-7096.541,-7062.6714,-7031.783,-6929.9717,-6902.342,-6924.557,-6866.4204,-6863.264,-6871.1143,-6863.671,-6889.918,-6885.0,-6873.976,-6846.6523,-6799.133,-6760.148,-6725.3105,-6712.2983,-6710.664,-6720.762,-6739.004,-6757.9883,-6787.3438,-6818.3667,-6855.4985,-6902.836,-6945.2065,-6979.981,-6999.553,-6994.77,-6985.963,-6973.8413,-6955.342,-6933.2476,-6902.2363,-6876.1646,-6848.239,-6820.5,-6796.597,-6778.833,-6793.233,-6816.5083,-6836.025,-6867.146,-6899.7017,-6929.437,-6954.952,-6979.5024,-6991.4253,-6983.162,-6980.0903,-6973.948,-6947.1655,-6923.8794,-6914.219,-6907.454,-6899.997,-6887.9004,-6873.616,-6864.5522,-6859.8975,-6864.2256,-6889.8228,-6914.4424,-6916.9727,-6935.587,-6984.747,-7026.734,-7040.6816,-7019.8423,-6984.5054,-6976.2188,-6982.9,-6971.872,-6955.047,-6946.601,-6934.202,-6916.068,-6909.984,-6926.049,-6946.114,-6949.6787,-6957.258,-6980.2236,-7003.0317,-7021.5327,-7028.145,-7031.923,-7044.4727,-7047.082,-7033.8237,-7035.501,-7054.2656,-7043.461,-7016.2925,-7011.0107,-7008.044,-7002.8857,-7010.429,-7015.01,-7014.2812,-7031.2563,-7046.748,-7057.293,-7079.206,-7087.382,-7086.457,-7086.1963,-7093.755,-7105.82,-7098.591,-7094.645,-7098.532,-7097.7715,-7095.0693,-7096.561,-7110.7876,-7124.4854,-7131.843,-7127.74,-7123.8774,-7139.5337,-7155.5093,-7161.45,-7169.15,-7180.7495,-7184.4717,-7190.165,-7209.48,-7219.8994,-7221.7056,-7231.9375,-7240.207,-7235.7876,-7235.8784,-7251.4824,-7265.5786,-7286.336,-7323.2275,-7357.454,-7380.1074,-7379.613,-7368.006,-7378.867,-7391.9087,-7377.362,-7360.0684,-7357.333,-7363.302,-7370.225,-7364.568,-7366.7515,-7372.977,-7359.134,-7353.2935,-7360.002,-7371.1997,-7378.969,-7372.826,-7385.614,-7404.656,-7399.835,-7398.831,-7412.124,-7419.7964,-7420.1514,-7427.441,-7431.975,-7436.7207,-7439.773,-7426.9966,-7438.5337,-7457.0522,-7447.5327,-7446.364,-7459.2075,-7472.449,-7471.3945,-7466.7974,-7480.5815,-7494.553,-7498.665,-7493.746,-7491.2583,-7494.6396,-7500.449,-7506.179,-7502.0864,-7508.886,-7514.5024,-7503.8545,-7504.1807,-7507.322,-7515.1743,-7538.7134,-7567.1064,-7586.119,-7584.283,-7579.2124,-7576.026,-7579.1167,-7584.3545,-7576.149,-7582.451,-7586.617,-7577.6523,-7582.6562,-7583.835,-7586.8535,-7587.9414,-7579.239,-7581.739,-7591.231,-7600.6787,-7605.8433,-7616.5825,-7630.374,-7636.412,-7640.308,-7645.877,-7655.705,-7659.1743,-7667.3257,-7671.3276,-7664.45,-7667.6104,-7661.185,-7660.284,-7662.4155,-7650.1953,-7653.039,-7653.052,-7656.9673,-7674.997,-7679.9707,-7690.9277,-7705.6104,-7714.5557,-7731.1064,-7741.613,-7745.472,-7759.036,-7772.212,-7770.986,-7767.6772,-7762.288,-7752.9824,-7750.9595,-7749.536,-7753.3164,-7758.698,-7761.69,-7775.351,-7785.676,-7793.1123,-7806.3643,-7818.7485,-7827.3457,-7831.42,-7841.0127,-7848.7524,-7850.974,-7850.09,-7844.074,-7848.1826,-7851.2715,-7849.3994,-7850.3413,-7856.3433,-7871.0146,-7870.242,-7867.139,-7869.953,-7870.014,-7887.9214,-7904.498,-7916.01,-7924.295,-7916.439,-7914.498,-7920.375,-7928.498,-7931.17,-7925.4995,-7925.5376,-7924.3877,-7917.832,-7907.951,-7897.597,-7887.649,-7888.5835,-7908.484,-7922.4233,-7923.458,-7923.948,-7934.212,-7950.196,-7955.442,-7954.7705,-7954.418,-7953.591,-7950.8423,-7949.328,-7948.2373,-7946.0303,-7945.3843,-7938.147,-7934.3335,-7928.1094,-7911.6567,-7917.686,-7933.691,-7939.457,-7947.016,-7947.102,-7950.367,-7962.187,-7968.339,-7972.8774,-7973.7656,-7981.792,-7991.9614,-7986.3237,-7984.771,-7987.789,-7981.165,-7973.0703,-7969.3354,-7964.373,-7953.65,-7944.8306,-7946.9873,-7963.8,-7981.819,-7986.984,-7984.836,-7984.2812,-7995.11,-8003.2104,-8000.7217,-8003.2856,-8001.243,-8001.087,-8014.42,-8019.029,-8010.9165,-8005.61,-8011.353,-8021.4165,-8020.0825,-8014.8433,-8020.908,-8029.7837,-8036.3955,-8046.5854,-8053.181,-8051.573,-8050.133,-8050.3867,-8053.901,-8057.6763,-8055.428,-8054.1113,-8047.555,-8036.7036,-8037.926,-8042.941,-8038.5967,-8034.599,-8038.1235,-8038.1943,-8031.9526,-8026.799,-8034.636,-8041.5215,-8031.7954,-8025.572,-8026.4775,-8042.6216,-8069.479,-8081.253,-8077.758,-8065.71,-8058.219,-8048.5894,-8030.3647,-8021.3975,-8034.026,-8054.3438,-8067.7065,-8091.725,-8111.73,-8137.501,-8177.5073,-8177.4834,-8175.4253,-8194.916,-8192.202,-8191.114,-8189.3423,-8166.431,-8142.8237,-8124.8184,-8111.3853,-8105.936,-8110.9023,-8127.249,-8148.525,-8152.862,-8138.9053,-8141.6885,-8149.8857,-8134.7886,-8121.5156,-8119.6323,-8120.005,-8116.588,-8120.6567,-8174.7944,-8242.823,-8266.26,-8262.7,-8276.443,-8353.257,-8467.661,-8603.349,-8726.8,-8739.885,-8704.215,-8621.521,-8463.449,-8364.979,-8304.859,-8323.77,-8440.329,-8518.685,-8645.962,-8759.178,-8721.5625,-8594.261,-8397.816,-8211.547,-8086.07,-7992.535,-7949.527,-7980.2427,-8021.602,-8032.5005,-8082.8145,-8164.887,-8206.702,-8192.248,-8196.8955,-8189.5146,-8109.7695,-8099.3984,-8154.7856,-8142.0435,-8066.413,-8015.9507,-8038.808,-8120.316,-8198.197,-8207.578,-8249.938,-8319.411,-8291.335,-8271.896,-8322.526,-8349.266,-8290.785,-8155.678,-8018.6772,-7920.0796,-7824.2153,-7735.5312,-7701.55,-7678.0605,-7651.4272,-7674.0103,-7697.9517,-7726.9404,-7841.3164,-7984.3223,-8092.4653,-8176.102,-8145.7583,-8008.2417,-7944.506,-7920.4707,-7837.525,-7783.5215,-7758.5312,-7706.934,-7628.716,-7578.6675,-7643.697,-7730.2085,-7755.145,-7780.125,-7784.2524,-7731.578,-7704.988,-7754.9,-7792.41,-7826.557,-7883.813,-7812.16,-7617.3896,-7464.844,-7371.4736,-7289.692,-7245.4985,-7271.063,-7346.346,-7442.1646,-7552.1313,-7687.519,-7779.565,-7739.209,-7640.9697,-7519.6465,-7362.5493,-7263.524,-7234.998,-7221.5605,-7186.3545,-7184.0693,-7246.477,-7286.667,-7339.1484,-7417.044,-7495.1235,-7615.506,-7784.124,-7993.452,-8132.1226,-8106.1025,-7962.0503,-7768.864,-7565.6714,-7349.5757,-7148.0596,-7039.3003,-7060.922,-7145.466,-7214.4917,-7274.1084,-7327.304,-7333.9526,-7305.4624,-7259.9404,-7188.5747,-7148.9146,-7143.1436,-7176.5728,-7273.2305,-7289.3555,-7246.7925,-7272.2876,-7280.102,-7265.178,-7254.6475,-7260.6265,-7344.92,-7403.8926,-7399.056,-7376.791,-7287.2427,-7161.7886,-7140.0103,-7300.231,-7464.771,-7521.032,-7531.4736,-7461.1016,-7383.251,-7304.1865,-7199.7134,-7202.8276,-7283.9966,-7413.3105,-7523.749,-7519.871,-7487.708,-7437.5405,-7393.525,-7364.6377,-7269.8345,-7153.4873,-7084.7563,-7083.8936,-7137.601,-7221.2007,-7318.4688,-7461.1187,-7577.183,-7480.1255,-7246.253,-6999.3193,-6833.054,-6826.2544,-6841.4033,-6873.236,-6939.799,-7021.4116,-7158.7256,-7250.4263,-7314.4863,-7363.0713,-7327.9824,-7295.94,-7238.0884,-7117.9053,-7038.912,-6969.2686,-6888.0244,-6889.38,-6931.6113,-6954.247,-6998.01,-7036.7764,-7056.6025,-7095.708,-7123.071,-7137.2354,-7216.2173,-7387.056,-7602.7856,-7804.4834,-7923.1455,-7982.1616,-8025.252,-7860.8003,-7424.3955,-6987.7983,-6797.004,-6855.4434,-6916.938,-6947.7554,-7019.107,-7025.175,-7014.2764,-6990.9043,-6934.113,-6874.4546,-6838.06,-6858.423,-6832.6055,-6795.9897,-6789.7915,-6820.1816,-6898.7505,-6962.4214,-7116.558,-7308.526,-7399.0654,-7379.8003,-7308.3325,-7265.4233,-7211.785,-7237.9453,-7278.042,-7185.3423,-7119.468,-7073.757,-6988.7705,-6926.347,-6901.7017,-6998.75,-7217.791,-7370.155,-7336.9287,-7224.5605,-7121.425,-7005.171,-6947.775,-6960.6484,-7011.536,-7114.257,-7183.695,-7239.8887,-7293.986,-7312.0117,-7382.485,-7486.269,-7592.955,-7653.8525,-7608.108,-7468.092,-7255.7256,-7072.771,-6906.835,-6825.6997,-6896.022,-6936.154,-6957.591,-7004.9463,-7059.0986,-7122.391,-7151.3813,-7221.0977,-7291.1025,-7253.89,-7138.6807,-6987.5474,-6901.627,-6939.442,-6998.467,-7016.1313,-7028.473,-7024.2153,-7028.8193,-7070.0244,-7082.5205,-7114.0083,-7186.4976,-7204.6597,-7236.4106,-7271.265,-7216.4087,-7221.582,-7349.021,-7479.8447,-7424.474,-7190.1,-7127.627,-7219.4146,-7196.5435,-7075.4263,-6940.7314,-6827.232,-6816.145,-6907.535,-6945.881,-6973.4604,-7008.4463,-7011.492,-7066.692,-7062.3887,-7039.5054,-7057.766,-7050.7686,-7064.4634,-7019.688,-6944.607,-6911.993,-6900.711,-6925.4946,-6991.98,-7085.6904,-7114.955,-7168.4956,-7335.6997,-7479.9263,-7530.2188,-7440.5405,-7288.775,-7227.77,-7234.5522,-7280.4893,-7347.2617,-7373.401,-7345.8423,-7278.253,-7187.469,-7073.085,-6922.281,-6761.425,-6654.6055,-6673.306,-6773.013,-6831.4263,-6891.791,-6975.0923,-7015.092,-7089.313,-7118.4897,-7046.9062,-7058.569,-7089.336,-7077.496,-7064.4927,-7023.6416,-7012.464,-6992.471,-6974.8335,-6969.7246,-6922.47,-6916.096,-6915.824,-6890.22,-6890.6885,-6911.1074,-6956.3555,-6998.2983,-7035.2007,-7067.946,-7086.7695,-7101.166,-7107.126,-7124.8135,-7127.693,-7100.028,-7082.592,-7082.0474,-7126.3945,-7246.963,-7373.3403
-7398.606,-7384.175,-7379.2866,-7234.304,-7048.6733,-6984.3823,-6916.125,-6877.915,-6908.1035,-6929.483,-6958.798,-6958.9155,-6946.2935,-6943.388,-6953.6836,-6966.7124,-6914.3594,-6861.142,-6826.464,-6809.368,-6835.1924,-6837.3643,-6843.222,-6870.7085,-6892.959,-6919.2734,-6944.5938,-6981.77,-7009.303,-7017.843,-7032.672,-7044.002,-7051.6953,-7060.967,-7057.927,-7036.21,-7001.9536,-6964.605,-6950.0576,-6955.8604,-6937.688,-6910.296,-6912.7427,-6931.9165,-6945.7397,-6964.251,-6995.1953,-7015.1724,-7027.2617,-7038.725,-7048.011,-7056.3496,-7047.0303,-7037.414,-7032.0586,-7018.3047,-7005.1997,-6989.262,-6982.3926,-6983.8345,-6981.0757,-6978.612,-6979.602,-6986.4644,-6987.039,-6994.129,-7028.109,-7060.025,-7064.7793,-7057.013,-7066.212,-7088.022,-7085.187,-7066.235,-7066.75,-7071.203,-7063.545,-7052.921,-7039.448,-7042.575,-7057.6626,-7054.6484,-7053.3574,-7063.901,-7066.035,-7071.5874,-7092.3467,-7113.3257,-7123.6772,-7123.392,-7124.395,-7126.5435,-7119.1196,-7118.0415,-7126.662,-7130.2266,-7125.8936,-7116.7686,-7115.086,-7125.8477,-7137.014,-7142.311,-7152.218,-7157.0815,-7149.455,-7147.859,-7154.78,-7174.0977,-7182.35,-7170.4404,-7181.5767,-7189.953,-7176.6045,-7181.365,-7189.5186,-7184.48,-7185.7153,-7187.923,-7189.343,-7201.217,-7204.5884,-7206.118,-7224.3774,-7232.0967,-7229.5386,-7239.629,-7254.0713,-7256.6367,-7253.953,-7251.014,-7248.5024,-7260.855,-7264.681,-7260.707,-7274.464,-7282.951,-7289.4736,-7297.198,-7304.211,-7322.2344,-7329.8584,-7336.4854,-7355.3916,-7363.902,-7363.2017,-7361.6816,-7356.205,-7351.6987,-7354.648,-7359.4004,-7367.123,-7382.402,-7389.595,-7395.555,-7418.533,-7430.1123,-7431.184,-7459.345,-7486.014,-7484.405,-7480.518,-7481.885,-7487.2627,-7496.2993,-7491.589,-7472.156,-7457.4595,-7452.8223,-7452.8813,-7455.1313,-7456.221,-7450.648,-7446.6416,-7458.6206,-7475.1914,-7483.4604,-7487.037,-7491.4814,-7492.4946,-7492.137,-7509.032,-7535.66,-7561.5024,-7578.788,-7583.7334,-7593.329,-7582.0747,-7545.618,-7536.076,-7553.3164,-7554.153,-7558.3247,-7601.624,-7629.076,-7642.4746,-7675.2217,-7676.421,-7658.8594,-7648.7363,-7653.939,-7680.22,-7690.2466,-7686.7886,-7688.6553,-7716.051,-7756.8335,-7782.328,-7786.0503,-7759.2144,-7740.632,-7745.305,-7785.3164,-7847.378,-7907.094,-7984.4775,-8036.427,-8127.89,-8257.606,-8344.112,-8480.805,-8540.011,-8432.485,-8294.387,-8073.303,-7904.0854,-7961.2163,-8001.255,-7913.8,-7823.024,-7786.562,-7845.0312,-7870.5913,-7811.8804,-7793.886,-7773.2153,-7790.658,-7855.1074,-7836.0605,-7760.3745,-7679.259,-7687.162,-7744.979,-7776.739,-7902.582,-7966.9893,-7843.366,-7742.394,-7710.1763,-7668.187,-7664.2915,-7711.3086,-7706.7563,-7695.3833,-7772.3374,-7815.868,-7790.165,-7792.411,-7718.746,-7503.653,-7349.807,-7306.6055,-7283.457,-7342.628,-7467.2124,-7580.99,-7669.405,-7730.543,-7844.3477,-8004.516,-8079.5728,-8104.5264,-8142.8643,-8081.3237,-7942.305,-7768.906,-7544.5835,-7453.6104,-7473.771,-7430.169,-7381.92,-7406.772,-7450.1895,-7485.395,-7642.3716,-7863.7656,-7967.496,-7899.62,-7665.3076,-7379.8364,-7104.603,-6991.607,-7104.9873,-7295.7944,-7467.5303,-7427.8706,-7434.2886,-7689.4653,-7816.046,-7863.164,-7876.388,-7726.4346,-7530.051,-7371.518,-7346.715,-7350.4023,-7333.787,-7372.5034,-7382.9004,-7452.3735,-7552.035,-7591.4307,-7664.4185,-7637.983,-7409.075,-7168.926,-7034.3594,-6985.842,-6982.788,-6956.7847,-6956.7485,-7000.51,-7069.0415,-7215.266,-7318.052,-7346.5356,-7346.8984,-7364.977,-7557.4824,-7759.627,-7774.792,-7662.239,-7493.949,-7358.5957,-7241.6816,-7088.803,-6985.3765,-7026.3164,-7120.2246,-7240.7144,-7475.2676,-7638.484,-7641.8506,-7656.7856,-7648.554,-7545.404,-7391.258,-7220.028,-7135.9224,-7166.1475,-7217.8115,-7234.178,-7180.3247,-7190.315,-7337.6216,-7386.298,-7327.384,-7344.543,-7418.982,-7434.9155,-7314.385,-7190.743,-7138.7505,-7082.8276,-7082.223,-7074.836,-7029.4,-7056.676,-7089.2837,-7136.677,-7237.6016,-7261.5273,-7174.243,-7065.606,-7015.4814,-7003.6533,-7028.0503,-7136.9717,-7272.355,-7371.696,-7406.4326,-7379.1924,-7306.9346,-7206.04,-7121.323,-7099.199,-7136.022,-7109.247,-7056.2153,-7074.8374,-7138.739,-7331.926,-7564.537,-7681.5767,-7730.9766,-7725.5483,-7714.6753,-7711.9736,-7628.9263,-7485.079,-7324.9976,-7190.061,-7125.5947,-7036.4224,-6981.7856,-7046.8867,-7029.716,-6970.3926,-6978.3633,-6967.694,-6952.1504,-6949.0825,-6981.047,-7067.2344,-7258.47,-7441.857,-7442.988,-7410.2837,-7387.6855,-7323.4453,-7247.0317,-7249.2485,-7341.5596,-7333.8804,-7317.273,-7347.5903,-7295.6,-7194.464,-7058.3975,-6959.433,-6937.825,-6925.691,-6898.896,-6891.1377,-6896.2256,-6904.2065,-7042.0547,-7233.818,-7375.9194,-7547.4253,-7604.2876,-7565.8413,-7596.971,-7522.7026,-7300.638,-7122.928,-7063.005,-7074.7783,-7091.8105,-7130.0044,-7127.6943,-7072.3325,-7160.704,-7296.5454,-7225.3105,-7084.8853,-7087.1426,-7122.2563,-7083.8516,-7072.2344,-7075.35,-7062.936,-7059.089,-7037.4453,-7061.7153,-7108.1597,-7139.8867,-7179.291,-7188.7764,-7197.232,-7194.098,-7173.5205,-7152.9097,-7110.8643,-7059.285,-7036.967,-7080.7773,-7108.108,-7113.439,-7167.3696,-7227.1006,-7315.159,-7450.879,-7555.282,-7598.6055,-7647.1465,-7712.785,-7731.532,-7658.1113,-7502.2373,-7343.1787,-7217.3657,-7159.6455,-7143.9414,-7127.2817,-7175.2607,-7230.317,-7252.5947,-7263.6055,-7282.114,-7437.396,-7664.919,-7766.793,-7744.0273,-7649.4414,-7468.3076,-7261.1045,-7109.062,-7020.148,-7011.002,-7030.488,-7039.9917,-7087.271,-7133.062,-7136.804,-7128.7974,-7125.013,-7158.6343,-7216.7256,-7222.7715,-7203.511,-7212.4497,-7223.3955,-7217.493,-7208.5684,-7224.731,-7258.5674,-7256.625,-7235.666,-7271.256,-7296.3027,-7282.014,-7307.4023,-7307.027,-7262.6274,-7201.9272,-7128.6646,-7077.842,-7039.6826,-7036.9595,-7058.272,-7111.5767,-7177.4053,-7219.167,-7326.934,-7413.879,-7423.086,-7491.589,-7571.6895,-7545.406,-7440.597,-7314.853,-7215.3086,-7212.1562,-7216.763,-7160.0884,-7131.673,-7103.4834,-7069.2324,-7052.9116,-7057.9697,-7104.661,-7140.353,-7181.7773,-7248.2285,-7317.6475,-7341.7036,-7309.6846,-7336.0347,-7366.7466,-7343.727,-7353.328,-7347.7095,-7307.7334,-7289.2744,-7279.118,-7281.4136,-7300.194,-7330.8403,-7376.577,-7407.391,-7419.2744,-7433.682,-7466.152,-7469.5464,-7390.4883,-7314.55,-7250.606,-7184.4043,-7235.9766,-7334.484,-7324.3394,-7275.8804,-7275.043,-7262.483,-7223.3447,-7189.119,-7140.4424,-7092.6504,-7064.0005,-7055.96,-7055.3594,-7057.3228,-7077.7036,-7111.7305,-7167.835,-7217.283,-7256.762,-7303.074,-7342.6646,-7385.4233,-7409.143,-7417.3174,-7410.44,-7388.3496,-7385.3506,-7370.3154,-7316.0703,-7260.9717,-7251.066,-7221.874,-7153.6147,-7133.57,-7120.4985,-7124.603,-7189.7876,-7248.658,-7293.834,-7333.101,-7369.89,-7404.321,-7414.027,-7409.3457,-7393.4844,-7379.303,-7375.8203,-7357.1167,-7321.1367,-7288.9497,-7265.2993,-7246.512,-7229.9224,-7216.941,-7218.9443,-7231.1636,-7243.256,-7270.3286,-7319.6113,-7356.065,-7368.8667,-7389.1064,-7408.6846,-7421.004,-7430.7217,-7422.8755,-7406.592,-7385.743,-7362.0093,-7342.279,-7316.503,-7290.4404,-7275.272,-7275.176,-7289.141,-7307.575,-7324.9,-7344.7188,-7371.4336,-7396.4814,-7417.765,-7437.367,-7458.134,-7479.6777,-7471.469,-7447.857,-7451.4355,-7451.435,-7431.799,-7421.166,-7410.595,-7396.0034,-7385.6553,-7364.462,-7349.3257,-7357.001,-7370.1074,-7385.6465,-7403.5576,-7422.371,-7436.6084,-7448.929,-7464.5215,-7470.106,-7467.3813,-7465.8394,-7468.0996,-7462.8696,-7445.784,-7427.034,-7406.4287,-7399.3804,-7417.469,-7436.129,-7438.4453,-7438.519,-7436.7124,-7436.309,-7447.7705,-7458.9824,-7473.904,-7489.6406,-7510.528,-7541.488,-7561.236,-7578.318,-7580.326,-7550.3286,-7514.0923,-7500.8486,-7505.0874,-7496.503,-7491.5728,-7482.107,-7476.354,-7522.6914,-7558.214,-7551.094,-7547.489,-7553.4453,-7567.4116,-7576.5654,-7579.646,-7579.296,-7574.056,-7587.1445,-7618.681,-7642.285,-7631.1553,-7607.333,-7603.5615,-7594.773,-7584.5527,-7577.605,-7570.8193,-7588.399,-7602.9517,-7603.9346,-7602.716,-7598.607,-7614.9287,-7630.824,-7634.253,-7648.131,-7662.574,-7670.5513,-7683.051,-7698.3354,-7698.907,-7698.632,-7708.446,-7714.0654,-7709.383,-7684.888,-7667.45,-7665.851,-7664.2554,-7670.981,-7675.3853,-7679.1265,-7672.7896,-7660.6,-7677.353,-7709.778,-7725.8735,-7716.52,-7721.097,-7748.8994,-7751.157,-7739.22,-7744.598,-7756.746,-7759.276,-7748.3247,-7742.229,-7749.795,-7749.237,-7737.754,-7733.6035,-7740.499,-7752.5186,-7761.304,-7776.716,-7815.202,-7850.196,-7860.0093,-7860.8696,-7865.9565,-7871.902,-7857.8594,-7842.9775,-7861.3696,-7907.355,-7952.7734,-7968.6196,-7988.1943,-7997.4907,-7972.9136,-7975.2847,-7979.4707,-7976.351,-7981.0063,-7967.4873,-8005.525,-8058.483,-8009.5195,-7975.7812,-8045.459,-8153.208,-8321.663,-8431.556,-8407.779,-8437.772,-8462.587,-8394.8955,-8313.304,-8209.439,-8175.9756,-8268.068,-8324.998,-8305.795,-8343.523,-8393.698,-8377.527,-8290.373,-8138.1055,-8083.7456,-8071.8076,-8065.648,-8156.0303,-8071.3643,-7873.9375,-7827.0435,-7776.6626,-7710.125,-7692.2183,-7697.6953,-7754.4795,-7787.768,-7774.026,-7704.2427,-7589.0317,-7564.021,-7572.9165,-7587.5195,-7719.5215,-7838.468,-7876.216,-7925.716,-7926.6357,-7871.145,-7768.8936,-7658.2837,-7714.1675,-7895.5996,-8116.152,-8286.138,-8280.636,-8223.471,-8153.386,-7992.308,-7857.986,-7904.6035,-7973.279,-7915.7495,-7880.3486,-7820.23,-7707.966,-7627.0547,-7550.994,-7498.199,-7406.285,-7311.821,-7308.9307,-7401.044,-7527.187,-7530.377,-7490.14,-7538.612,-7636.4595,-7734.108,-7772.4536,-7793.8994,-7897.04,-8030.5054,-8008.3687,-7810.501,-7592.13,-7423.057,-7385.586,-7484.9927,-7559.183,-7568.673,-7529.4897,-7379.9917,-7205.5107,-7264.777,-7495.0703,-7546.151,-7507.5605,-7566.008,-7555.0796,-7424.011,-7322.2505,-7336.438,-7398.054,-7492.2876,-7613.641,-7709.1514,-7871.409,-8001.7896,-7988.125,-7993.6245,-7943.3447,-7744.8813,-7546.775,-7377.223,-7298.751,-7365.309,-7459.6577,-7538.653,-7609.516,-7632.5376,-7578.968,-7497.4365,-7408.1206,-7266.0913,-7128.491,-7137.6665,-7299.4043,-7394.5083,-7392.4004,-7499.617,-7705.0864,-7813.8105,-7754.028,-7679.0835,-7634.0825,-7527.6606,-7438.9355,-7435.3223,-7468.0474,-7453.6436,-7401.373,-7345.663,-7260.685,-7242.2295,-7280.3896,-7335.3174,-7443.106,-7550.4556,-7712.401,-7903.5244,-8004.7505,-7972.899,-7776.8833,-7532.982,-7385.9053,-7327.9106,-7274.8843,-7235.3696,-7274.0522,-7363.034,-7417.734,-7402.269,-7379.693,-7374.858,-7309.5312,-7175.4404,-7145.9937,-7164.3804,-7042.9116,-7058.487,-7298.6084,-7443.909,-7422.2837,-7358.719,-7358.9175,-7381.897,-7402.1475,-7456.702,-7559.3184,-7718.675,-7759.2207,-7671.054,-7601.05,-7489.7217,-7415.538,-7428.359,-7411.208,-7415.0635,-7435.204,-7391.809,-7302.077,-7235.4644,-7228.395,-7197.9194,-7154.212,-7143.7134,-7133.94,-7124.137,-7128.13,-7189.5845,-7252.7705,-7276.7993,-7323.907,-7398.3945,-7480.932,-7506.7676,-7499.066,-7526.6934,-7552.251,-7565.5986,-7556.6636,-7504.2417,-7424.8105,-7370.571,-7389.85,-7477.75,-7626.1416,-7787.2,-7806.1216,-7615.4463,-7388.3433,-7234.856,-7107.3066,-7040.188,-7057.8794,-7159.7803,-7396.751,-7660.767,-7790.184,-7767.4897,-7648.994,-7572.6055,-7556.9253,-7527.8413,-7492.486,-7387.3706,-7254.5615,-7199.581,-7179.333,-7170.2124,-7199.5596,-7283.6455,-7342.3423,-7322.2427,-7333.733,-7408.8994,-7437.275,-7397.1846,-7351.5303,-7302.6665,-7268.4106,-7241.6797,-7212.942,-7222.5835,-7232.501,-7246.355,-7283.0166,-7327.3843,-7389.079,-7444.9595,-7504.947,-7591.736,-7732.4717,-7880.9214,-7944.531,-7991.652,-7986.879,-7811.2876,-7612.563,-7509.7505,-7447.621,-7435.31,-7493.6987,-7565.6084,-7588.1055,-7563.3755,-7464.5195,-7331.413,-7260.503,-7204.6387,-7257.4775,-7467.2207,-7686.1294,-7856.234,-7886.3677,-7827.5244,-7734.412,-7541.808,-7366.4995,-7254.92,-7194.9546,-7210.378,-7234.3926,-7256.213,-7280.632,-7291.532,-7324.1445,-7372.6387,-7409.8613,-7427.4995,-7416.185,-7393.5786,-7365.6963,-7341.6865,-7336.972,-7348.9106,-7379.146,-7403.5903,-7410.7134,-7416.1855,-7424.7993,-7441.9614,-7466.2686,-7475.557,-7457.95,-7460.479,-7491.4946,-7495.333,-7485.122,-7483.0527,-7477.365,-7482.361,-7506.7534,-7528.549,-7519.1685,-7499.1807,-7489.5166,-7477.382,-7480.5225,-7478.622,-7437.73,-7421.932,-7471.194,-7516.071,-7518.923,-7520.316,-7533.909,-7537.0693,-7517.421,-7480.603,-7449.638,-7425.6006,-7399.696,-7395.6733,-7394.078,-7372.3716,-7367.3853,-7367.247,-7376.327,-7412.7656,-7431.6675,-7446.9526,-7477.754,-7500.9453,-7514.689,-7520.3677,-7525.0776,-7521.3804,-7511.7,-7506.354,-7495.423,-7482.1084,-7466.97,-7452.3643,-7448.271,-7456.988,-7464.094,-7460.573,-7468.8506,-7479.0293,-7481.478,-7497.4424,-7518.89,-7547.7534,-7574.368,-7584.043,-7606.958,-7623.5806,-7610.5024,-7603.7925,-7587.589,-7552.3325,-7534.138,-7517.861,-7505.29,-7504.5693,-7495.2446,-7492.1724,-7497.687
-7518.466,-7544.4136,-7549.418,-7563.8022,-7583.0635,-7593.737,-7606.1396,-7611.522,-7612.7935,-7603.9326,-7591.41,-7586.7637,-7581.148,-7574.681,-7568.9634,-7563.92,-7561.7227,-7565.898,-7567.0967,-7576.2217,-7602.0845,-7610.3364,-7613.1934,-7638.6514,-7666.4995,-7677.04,-7683.05,-7693.891,-7688.3467,-7681.792,-7688.1826,-7689.8223,-7672.6836,-7630.866,-7610.732,-7620.745,-7624.3945,-7631.8667,-7645.293,-7655.6055,-7663.911,-7670.8486,-7680.2114,-7700.169,-7721.346,-7724.069,-7721.5093,-7717.844,-7712.5137,-7710.271,-7696.35,-7684.334,-7680.759,-7677.7744,-7682.6357,-7685.782,-7684.659,-7680.6597,-7683.1133,-7702.557,-7729.7964,-7749.637,-7749.5425,-7769.069,-7802.049,-7798.4204,-7796.741,-7803.089,-7802.0146,-7803.822,-7794.923,-7790.4287,-7779.3,-7770.7427,-7782.2583,-7779.2705,-7788.506,-7799.16,-7795.326,-7812.142,-7822.884,-7829.1543,-7831.4897,-7827.8984,-7844.722,-7858.539,-7861.9043,-7863.13,-7865.1377,-7865.064,-7857.0195,-7854.7744,-7850.8203,-7844.8003,-7847.4424,-7849.427,-7844.874,-7847.259,-7861.363,-7868.16,-7873.6685,-7880.6123,-7883.3613,-7889.428,-7889.292,-7896.2427,-7904.265,-7894.36,-7895.465,-7900.9893,-7893.573,-7885.6655,-7884.8813,-7889.082,-7884.1206,-7886.7407,-7901.0713,-7896.168,-7886.9736,-7896.1685,-7907.0176,-7906.984,-7907.6763,-7915.423,-7922.592,-7929.0166,-7933.7847,-7931.219,-7926.4526,-7925.0996,-7924.7007,-7935.5083,-7948.3667,-7944.5176,-7946.0317,-7947.329,-7941.4873,-7951.4624,-7964.452,-7967.8306,-7967.2812,-7971.7734,-7972.2007,-7968.0293,-7975.658,-7980.9917,-7992.5317,-8008.407,-8000.263,-7976.7466,-7966.804,-7976.923,-7970.0664,-7961.3076,-7970.48,-7968.453,-7979.4277,-7990.2495,-7979.9263,-7984.2046,-7993.486,-8001.5396,-8007.0195,-8001.455,-8007.701,-8017.8613,-8019.419,-8028.4883,-8038.2544,-8040.005,-8044.15,-8050.5317,-8053.7354,-8055.354,-8057.217,-8056.538,-8053.664,-8061.857,-8072.951,-8069.462,-8070.6562,-8077.6855,-8078.05,-8083.813,-8088.4795,-8086.808,-8085.815,-8087.3154,-8091.6685,-8094.3364,-8097.523,-8097.9644,-8098.0786,-8105.39,-8112.5903,-8116.5034,-8113.961,-8106.316,-8096.8184,-8091.681,-8112.1567,-8141.458,-8136.6323,-8118.549,-8119.5,-8121.197,-8125.523,-8132.282,-8135.4653,-8152.3057,-8161.697,-8163.7437,-8172.8047,-8169.984,-8183.222,-8228.5625,-8271.536,-8296.731,-8311.071,-8331.6455,-8336.022,-8291.83,-8256.782,-8262.636,-8252.383,-8231.7705,-8223.479,-8203.069,-8185.8447,-8177.588,-8184.9263,-8226.137,-8249.36,-8257.344,-8282.403,-8309.18,-8385.64,-8485.452,-8505.292,-8510.193,-8608.069,-8695.758,-8693.979,-8699.9,-8709.415,-8733.859,-8761.289,-8693.923,-8695.876,-8828.013,-8944.249,-8983.99,-8880.723,-8738.434,-8643.613,-8553.755,-8465.477,-8328.296,-8274.72,-8314.435,-8310.092,-8435.341,-8598.558,-8576.109,-8426.114,-8214.597,-8118.8145,-8155.092,-8210.113,-8262.034,-8214.083,-8149.137,-8116.937,-8057.149,-8056.3794,-8057.5205,-7982.607,-7938.4473,-7980.4185,-8053.929,-8102.554,-8074.231,-7980.7456,-7933.4966,-7990.9106,-8123.05,-8264.505,-8416.954,-8563.317,-8614.459,-8586.357,-8518.016,-8429.918,-8314.992,-8219.253,-8193.392,-8180.8345,-8173.2905,-8093.145,-7935.123,-7816.619,-7784.3364,-7798.4673,-7740.898,-7688.0176,-7747.88,-7850.2056,-7871.0557,-7804.8535,-7785.528,-7825.1597,-7921.004,-8004.4043,-8023.237,-8105.3047,-8196.615,-8198.861,-8201.549,-8243.259,-8231.918,-8128.3335,-7977.6094,-7887.2217,-7884.488,-7854.0195,-7819.038,-7795.8374,-7770.3867,-7746.295,-7662.998,-7585.981,-7513.0986,-7490.7866,-7589.3096,-7620.489,-7629.7603,-7729.663,-7799.615,-7869.447,-7944.465,-7993.148,-8096.897,-8173.3813,-8130.572,-7994.2783,-7821.6797,-7709.657,-7655.531,-7685.3804,-7882.361,-8130.756,-8258.521,-8265.401,-8175.7725,-7952.225,-7653.3115,-7449.771,-7439.2354,-7509.2407,-7534.5933,-7536.902,-7546.425,-7522.682,-7436.665,-7389.4756,-7458.9966,-7583.3784,-7657.427,-7666.709,-7709.6772,-7765.169,-7841.4883,-7940.4907,-7860.9795,-7684.086,-7579.157,-7479.3076,-7428.4185,-7454.6143,-7593.315,-7836.006,-7926.2446,-7868.839,-7832.5723,-7769.813,-7684.5264,-7580.6206,-7460.972,-7377.6714,-7325.1167,-7348.954,-7412.459,-7489.0938,-7598.9688,-7656.072,-7679.8545,-7690.9854,-7675.3105,-7642.656,-7615.0244,-7652.7007,-7704.8384,-7750.892,-7808.586,-7881.5776,-7985.3076,-8025.05,-7955.474,-7892.6943,-7927.58,-7870.9214,-7645.8716,-7554.9937,-7586.6333,-7570.126,-7610.228,-7677.984,-7682.9385,-7684.1685,-7685.089,-7624.9854,-7528.0684,-7464.2876,-7405.92,-7347.641,-7413.683,-7626.2056,-7783.459,-7808.364,-7852.3975,-7871.6113,-7854.958,-7896.8613,-7757.1313,-7470.2646,-7340.486,-7290.3765,-7279.5957,-7334.6147,-7398.5728,-7462.0747,-7501.084,-7610.2925,-7801.032,-7920.6724,-7903.4614,-7764.067,-7588.3657,-7436.5015,-7288.7993,-7148.08,-7071.9683,-7072.6646,-7102.6387,-7177.6987,-7291.161,-7390.8696,-7470.9727,-7523.202,-7561.1816,-7586.093,-7558.772,-7506.673,-7458.2734,-7430.1514,-7436.6807,-7412.4805,-7415.131,-7540.467,-7631.464,-7607.709,-7563.7905,-7486.1733,-7412.7773,-7427.595,-7482.799,-7550.3755,-7634.492,-7739.8125,-7854.837,-7841.9644,-7728.364,-7647.624,-7516.4414,-7399.85,-7363.545,-7308.636,-7311.688,-7363.725,-7387.8945,-7413.676,-7456.0825,-7501.393,-7523.492,-7566.409,-7609.9834,-7626.3926,-7657.344,-7670.26,-7669.433,-7698.6504,-7738.371,-7710.351,-7643.384,-7621.4375,-7588.3823,-7555.9287,-7561.3413,-7561.5093,-7555.136,-7525.252,-7496.1567,-7494.123,-7504.5923,-7564.2837,-7627.8486,-7629.673,-7606.2515,-7604.2275,-7624.616,-7618.295,-7578.3745,-7534.2764,-7511.5977,-7513.612,-7500.7593,-7479.115,-7472.76,-7488.3613,-7502.2495,-7505.4644,-7544.4453,-7595.904,-7627.4883,-7646.1357,-7646.0957,-7652.5713,-7679.854,-7696.894,-7679.401,-7641.0156,-7604.598,-7574.216,-7548.408,-7540.324,-7543.6245,-7533.488,-7530.7837,-7545.616,-7566.675,-7597.687,-7626.8594,-7660.203,-7691.3247,-7704.277,-7720.1685,-7729.922,-7719.655,-7707.1167,-7697.798,-7684.5615,-7654.1978,-7621.1616,-7611.0396,-7605.66,-7594.5596,-7586.958,-7581.3022,-7580.6816,-7592.463,-7625.6465,-7667.521,-7699.086,-7719.53,-7735.6323,-7754.182,-7762.624,-7759.8237,-7746.607,-7728.013,-7717.035,-7703.3555,-7694.4424,-7681.6226,-7669.487,-7673.0195,-7667.469,-7674.7026,-7694.771,-7707.9736,-7721.7773,-7730.756,-7754.161,-7768.7617,-7764.9014,-7774.1426,-7779.1147,-7784.2285,-7783.606,-7775.464,-7776.9683,-7759.973,-7736.4644,-7728.702,-7730.4956,-7739.831,-7747.4165,-7756.5366,-7762.5713,-7763.2534,-7769.6025,-7787.22,-7805.505,-7804.345,-7797.8076,-7801.36,-7813.18,-7822.425,-7818.555,-7820.1475,-7824.776,-7816.1157,-7803.81,-7799.9927,-7802.4653,-7797.8784,-7798.3916,-7814.1973,-7829.8403,-7842.088,-7847.883,-7852.1914,-7867.5566,-7884.7036,-7885.5293,-7873.4585,-7870.5005,-7872.752,-7873.8877,-7877.1387,-7873.1943,-7875.645,-7879.352,-7868.966,-7875.495,-7894.711,-7901.753,-7905.5596,-7904.8584,-7916.625,-7940.1865,-7941.4175,-7939.2485,-7938.042,-7928.798,-7930.4995,-7931.518,-7929.875,-7928.3335,-7924.2314,-7931.359,-7942.327,-7944.3896,-7951.66,-7975.1104,-7989.3516,-7993.803,-8003.0605,-8002.7993,-8006.991,-8020.7417,-8030.4473,-8037.52,-8032.202,-8020.5444,-8019.26,-8027.688,-8030.426,-8023.606,-8026.746,-8031.0146,-8021.557,-8008.4277,-8004.3643,-8015.6465,-8018.2812,-8012.394,-8019.0825,-8023.974,-8032.4194,-8039.9966,-8034.0728,-8035.8105,-8034.579,-8022.7256,-8015.781,-8017.069,-8024.4673,-8022.5723,-8024.097,-8040.7734,-8048.114,-8047.4883,-8053.285,-8067.0366,-8079.744,-8082.4736,-8087.2812,-8097.1553,-8102.2676,-8107.3857,-8113.206,-8111.5396,-8105.072,-8099.7363,-8097.3887,-8096.3535,-8092.788,-8087.678,-8084.168,-8090.3486,-8106.6914,-8113.2734,-8112.1343,-8121.771,-8133.28,-8137.75,-8145.075,-8156.0312,-8155.5464,-8152.6025,-8156.932,-8149.832,-8135.3955,-8118.5103,-8108.838,-8119.1655,-8124.74,-8128.661,-8139.685,-8147.251,-8155.861,-8161.146,-8164.3955,-8169.1465,-8179.878,-8189.3774,-8188.76,-8189.722,-8182.013,-8178.308,-8181.0806,-8173.498,-8174.5415,-8174.934,-8173.269,-8169.862,-8171.436,-8189.946,-8190.7393,-8191.5493,-8197.723,-8190.2183,-8197.435,-8214.681,-8231.969,-8242.58,-8243.056,-8245.496,-8250.234,-8255.955,-8257.932,-8260.453,-8255.914,-8241.179,-8232.097,-8228.495,-8225.823,-8228.398,-8256.358,-8284.576,-8280.175,-8277.038,-8286.613,-8299.41,-8304.39,-8296.44,-8302.462,-8315.454,-8321.888,-8323.499,-8314.402,-8309.683,-8304.696,-8289.781,-8282.232,-8277.697,-8273.675,-8280.068,-8287.074,-8286.351,-8278.398,-8274.466,-8285.1455,-8295.998,-8306.563,-8322.37,-8330.102,-8334.812,-8340.203,-8340.023,-8336.374,-8331.774,-8332.01,-8330.955,-8318.083,-8309.599,-8317.789,-8323.716,-8323.3955,-8326.136,-8334.849,-8350.485,-8360.305,-8366.203,-8367.238,-8361.6,-8361.811,-8361.823,-8367.069,-8372.876,-8369.867,-8381.235,-8394.307,-8378.955,-8361.777,-8369.848,-8380.151,-8376.613,-8365.665,-8375.192,-8410.304,-8420.353,-8420.055,-8433.462,-8423.662,-8406.686,-8403.607,-8399.651,-8394.113,-8385.633,-8381.577,-8396.627,-8410.319,-8406.576,-8402.592,-8395.18,-8385.607,-8382.866,-8379.57,-8379.436,-8380.992,-8378.627,-8371.243,-8378.047,-8424.931,-8478.787,-8513.672,-8546.356,-8553.325,-8533.021,-8533.324,-8557.637,-8564.799,-8530.26,-8494.367,-8469.964,-8433.432,-8421.774,-8428.1,-8416.163,-8397.412,-8392.942,-8426.985,-8463.046,-8462.757,-8455.029,-8452.966,-8451.856,-8442.224,-8419.051,-8396.675,-8393.451,-8398.453,-8390.509,-8415.241,-8493.653,-8605.885,-8770.537,-8935.513,-8990.211,-8958.608,-8904.043,-8768.633,-8626.375,-8559.704,-8483.835,-8439.073,-8424.913,-8405.871,-8421.927,-8434.824,-8450.594,-8470.6875,-8500.774,-8570.664,-8638.126,-8682.431,-8737.845,-8818.645,-8834.859,-8722.356,-8595.076,-8598.696,-8639.547,-8601.186,-8604.803,-8712.045,-8885.574,-8981.839,-8939.857,-8882.156,-8769.476,-8758.15,-8917.509,-8963.278,-8904.304,-8772.706,-8608.682,-8515.701,-8412.83,-8306.55,-8195.406,-8099.909,-8053.3394,-8028.277,-8081.1353,-8176.647,-8263.772,-8335.113,-8344.272,-8326.969,-8360.207,-8370.86,-8288.145,-8223.906,-8189.8267,-8129.3423,-8120.303,-8212.042,-8273.855,-8228.812,-8222.716,-8265.513,-8307.58,-8368.274,-8412.223,-8491.693,-8529.845,-8464.976,-8395.086,-8267.542,-8179.2837,-8249.131,-8304.498,-8246.595,-8140.516,-8075.5913,-8060.0864,-8053.573,-8087.5913,-8140.0806,-8136.251,-8124.9873,-8145.7285,-8143.8413,-8127.449,-8103.538,-8115.854,-8190.9067,-8216.345,-8222.079,-8198.25,-8095.822,-8058.8384,-8004.168,-7927.014,-7973.215,-8007.522,-8040.0117,-8070.8022,-8027.5615,-8019.038,-7987.828,-7940.2837,-8004.359,-8147.213,-8275.586,-8325.643,-8294.292,-8250.99,-8303.139,-8258.551,-8015.571,-7875.9624,-7815.229,-7748.3027,-7713.36,-7642.1304,-7647.96,-7744.762,-7861.4604,-7965.859,-7956.551,-7890.3384,-7839.818,-7776.986,-7689.2964,-7617.952,-7628.589,-7678.2573,-7700.111,-7700.309,-7683.95,-7669.5454,-7684.744,-7740.8135,-7806.0327,-7823.8823,-7832.9497,-7844.9053,-7823.7646,-7796.9014,-7766.5522,-7761.1,-7787.4395,-7808.6274,-7881.4,-7993.624,-8046.818,-8089.117,-8097.667,-7966.9644,-7843.848,-7771.464,-7682.086,-7674.296,-7711.519,-7785.722,-7947.523,-8108.941,-8235.576,-8243.788,-8109.273,-7973.5396,-7819.5913,-7604.58,-7457.815,-7464.344,-7498.273,-7465.1494,-7474.7407,-7514.38,-7521.048,-7552.555,-7585.6,-7601.4883,-7615.454,-7622.445,-7631.3237,-7638.0337,-7652.2715,-7684.1245,-7756.2256,-7854.075,-7896.57,-7901.8057,-7939.1714,-7949.0303,-7915.1436,-7902.9614,-7870.2676,-7870.564,-7970.4995,-8054.4653,-8098.49,-8163.668,-8216.413,-8155.4033,-8008.8394,-7807.66,-7577.7124,-7504.945,-7544.2373,-7659.1445,-7812.5645,-7846.8833,-7895.3247,-7884.5894,-7770.356,-7732.72,-7676.5845,-7572.0703,-7482.236,-7395.8296,-7343.126,-7396.269,-7495.2163,-7594.439,-7719.452,-7803.3916,-7909.714,-7975.818,-7951.784,-7934.0137,-7834.05,-7744.045,-7728.2,-7677.683,-7641.491,-7614.446,-7574.611,-7602.1436,-7685.7295,-7729.6694,-7730.69,-7721.736,-7690.8086,-7651.668,-7633.452,-7652.8945,-7703.751,-7782.3057,-7877.139,-7925.898,-7943.752,-7975.5513,-7949.7065,-7865.115,-7792.575,-7779.689,-7885.3555,-8038.4834,-8110.38,-8104.627,-8052.7124,-7933.768,-7815.932,-7722.684,-7650.0664,-7734.0635,-7833.025,-7793.442,-7728.2896,-7636.162,-7595.652,-7690.137,-7851.1836,-7957.691,-7931.0913,-7837.738,-7696.132,-7603.494,-7600.7993,-7563.9375,-7556.682,-7603.205,-7639.812,-7694.077,-7754.66,-7779.125,-7766.431,-7743.525,-7730.4414,-7726.2783,-7699.6855,-7675.072,-7659.831,-7615.205,-7610.7783,-7652.5596,-7714.467,-7798.5576,-7818.297,-7859.0723,-8040.875,-8264.384,-8456.82,-8527.166,-8384.789
