SampleData
0.0,49737690.0,219814740.0,398611460.0,454758180.0,467465570.0,455086940.0,436351550.0,460274340.0,454173800.0,463698460.0,486641470.0,485260860.0,510807580.0,515690340.0,524061200.0,535994400.0,529139420.0,535869060.0,524496420.0,518105700.0,508873860.0,492458560.0,486019230.0,470003680.0,464448500.0,457957540.0,455210020.0,459766430.0,461610460.0,472307900.0,480218000.0,491609380.0,502873660.0,510940100.0,519835100.0,522631580.0,525508960.0,523861250.0,519812770.0,514445920.0,505174500.0,496456130.0,485876600.0,477080350.0,469718100.0,464328860.0,463061500.0,464002900.0,468636030.0,474881800.0,483038700.0,492177060.0,500690780.0,508888060.0,514762660.0,519006500.0,520509920.0,519062750.0,515410340.0,509140450.0,502163420.0,494500540.0,486665660.0,479800740.0,473968400.0,470116300.0,468667900.0,469620830.0,472703970.0,477748830.0,484358750.0,491404260.0,497971170.0,504028700.0,509728300.0,513926340.0,515663420.0,514952800.0,511942240.0,507139520.0,501057440.0,494216320.0,487374300.0,481191500.0,476383300.0,473784700.0,473530530.0,474992700.0,477587300.0,481303550.0,486519040.0,492634900.0,498206800.0,502570530.0,505761060.0,507727070.0,508350200.0,507761700.0,506127970.0,503498200.0,500015400.0,495820220.0,491197020.0,486580400.0,482752260.0,480313900.0,479164960.0,479566980.0,481493280.0,484480220.0,488275620.0,492465180.0,496781630.0,500624030.0,503626560.0,505687840.0,506387780.0,505791870.0,503935680.0,501167680.0,497903200.0,494273200.0,490748260.0,487506370.0,484984670.0,483365380.0,482579900.0,483024480.0,484401020.0,486531970.0,489139650.0,491804260.0,494747600.0,497487500.0,499825900.0,501616100.0,502155200.0,501704300.0,500400220.0,498533220.0,496412350.0,493646850.0,491180400.0,489450080.0,487797100.0,486716600.0,486203100.0,486029540.0,486612260.0,488052450.0,490263600.0,492471170.0,494249600.0,495878820.0,497017300.0,497684900.0,498297760.0,498634400.0,498541800.0,497872860.0,496418700.0,494808130.0,493194780.0,491511970.0,490294050.0,489305150.0,488838240.0,489088930.0,489545950.0,490542500.0,491891260.0,493269060.0,494508260.0,495538560.0,496578980.0,496948350.0,496725280.0,496451620.0,496051100.0,495594340.0,494827230.0,493906560.0,492895900.0,491705020.0,490860830.0,490197250.0,489564160.0,489495550.0,490217400.0,491250720.0,492117000.0,493062140.0,493920350.0,494387460.0,494735200.0,494783580.0,494653700.0,494845700.0,494951170.0,494612900.0,494051700.0,493530000.0,493302180.0,493071330.0,492666000.0,492557920.0,492638180.0,492719800.0,492940160.0,493120160.0,493224600.0,493332700.0,493538900.0,493704220.0,493740030.0,493880640.0,493831870.0,493751300.0,493844770.0,493664640.0,493298900.0,492903260.0,492738620.0,492556770.0,492046240.0,492110720.0,492802100.0,493632540.0,494403740.0,494680030.0,494540350.0,493990980.0,493393060.0,493125020.0,492618000.0,492285760.0,492457920.0,492551550.0,492834660.0,493204500.0,493437980.0,493665570.0,493648480.0,493762560.0,493965380.0,494087040.0,494371550.0,494225400.0,493657300.0,493074660.0,492769200.0,492975900.0,492978240.0,492861150.0,492669860.0,492062560.0,491859620.0,491857820.0,491960580.0,492594000.0,493246750.0,494027170.0,494595870.0,494967400.0,495673180.0,496002560.0,496053700.0,495943300.0,495335940.0,494681570.0,494059970.0,493240350.0,492364300.0,491680500.0,490965700.0,490141800.0,489515200.0,489501800.0,490263360.0,491045920.0,491882720.0,493222050.0,494730530.0,496171400.0,497170430.0,497637470.0,497553600.0,497018530.0,496302300.0,495188060.0,494108320.0,493208900.0,492312030.0,491746080.0,491245570.0,490871970.0,490571170.0,490276400.0,490626400.0,491340480.0,492133860.0,493067870.0,493981820.0,494846200.0,495585860.0,496419700.0,496989250.0,496889760.0,496488670.0,495728400.0,494742750.0,493701900.0,492494660.0,491480320.0,490709380.0,490286000.0,490389150.0,490663460.0,491257760.0,491987700.0,492233300.0,492599970.0,493691260.0,495095140.0,496251620.0,496989060.0,497303700.0,496955170.0,496032800.0,494744580.0,493246660.0,492171520.0,491582400.0,491237220.0,491013280.0,490531420.0,490368800.0,490724000.0,491176350.0,492115970.0,493216900.0,494216350.0,495131620.0,495757630.0,496444030.0,496910620.0,496982530.0,496703580.0,496094100.0,495563070.0,494768830.0,493837000.0,493022430.0,492083360.0,491347260.0,490788900.0,490526460.0,490738720.0,491118270.0,491736100.0,492409400.0,492895680.0,493524580.0,494400770.0,495271330.0,495980800.0,496462750.0,496622660.0,496280100.0,495474620.0,494307170.0,492753300.0,491419970.0,490645760.0,490307040.0,490485730.0,490871040.0,491494660.0,492094100.0,492387870.0,492967680.0,493616770.0,494342200.0,495279140.0,495849760.0,496217600.0,496524670.0,496637920.0,496399700.0,495641570.0,494682700.0,493607140.0,492560320.0,491910820.0,491626370.0,491592860.0,491560200.0,491497730.0,491774200.0,492291200.0,492791420.0,493356300.0,493870200.0,494323650.0,494989980.0,495538300.0,495686900.0,495714660.0,495576220.0,495121800.0,494400480.0,493634180.0,492804450.0,491873800.0,491490400.0,491623680.0,491840830.0,492212900.0,492550800.0,492838700.0,493062100.0,493433540.0,494144220.0,494614140.0,495131040.0,495784300.0,496027260.0,496135740.0,495879520.0,495283870.0,494717660.0,494068100.0,493558500.0,493025470.0,492541150.0,492204000.0,491727680.0,491499500.0,491607550.0,491974080.0,492562560.0,493236670.0,494053380.0,494721860.0,495248580.0,495600770.0,495589700.0,495529280.0,495331840.0,494861470.0,494133380.0,493124160.0,492387400.0,492135800.0,492047520.0,492071740.0,491944320.0,491497540.0,491255900.0,491391420.0,491662270.0,492345630.0,493527400.0,494707780.0,495358300.0,495422240.0,495570600.0,495815840.0,495693920.0,495509300.0,495153300.0,494421660.0,493880320.0,493689660.0,493466850.0,493255460.0,493236670.0,493167940.0,493084640.0,493125950.0,493231140.0,493287900.0,493198500.0,493439040.0,493989300.0,494468160.0,494975070.0,495171600.0,494992130.0,494705630.0,494290020.0,493715840.0,493026000.0,492715940.0,492775740.0,492832800.0,493113730.0,493201250.0,492954500.0,493067040.0,493281380.0,493511300.0,494103550.0,494574370.0,494717120.0,494792640.0,494793280.0,494746180.0,494694460.0,494552160.0,494333540.0,493947550.0,493290880.0,492791200.0,492887970.0,493328900.0,493501630.0,493386780.0,493473020.0,493639260.0,493611940.0,493774270.0,494192100.0,494393000.0,494423500.0,494457540.0,494391360.0,494415650.0,494556930.0,494625730.0,494643600.0,494524740.0,494344480.0,494134620.0,493776500.0,493593060.0,493563740.0,493465340.0,493389020.0,493073300.0,492522460.0,492291460.0,492607000.0,493009950.0,493262850.0,493797340.0,494395100.0,494691970.0,494874880.0,494868320.0,494764670.0,494671500.0,494535970.0,494434400.0,494247520.0,494133630.0,494172220.0,494115940.0,494140400.0,494246600.0,494248830.0,494236740.0,494173760.0,494049100.0,493697000.0,493209500.0,493110900.0,493087260.0,493106200.0,493592740.0,493971800.0,493920830.0,493674560.0,493514140.0,493538900.0,493624740.0,494019550.0,494142270.0,493550050.0,492987680.0,492661220.0,492911700.0,493611360.0,494124260.0,494617950.0,494599230.0,494393860.0,494618750.0,494561100.0,494557540.0,494627070.0,494459000.0,494424060.0,494313250.0,494277300.0,494187870.0,493974800.0,494002140.0,494032700.0,494175400.0,494279800.0,494175650.0,494109470.0,494019230.0,493935870.0,493717820.0,493537920.0,493378900.0,492846530.0,492569000.0,492927040.0,493626180.0,494216200.0,494369060.0,494520260.0,494618700.0,494456930.0,494396860.0,494395420.0,494299740.0,494231000.0,494319970.0,494386750.0,494197570.0,493654600.0,493112220.0,493159230.0,493374530.0,493558370.0,493886560.0,493986620.0,493938200.0,493944200.0,494101730.0,494309730.0,494397760.0,494428860.0,494347970.0,494320030.0,494222240.0,494106000.0,494096450.0,493804350.0,493739870.0,494040540.0,494241660.0,494449500.0,494264130.0,493889800.0,493853760.0,493763400.0,493810050.0,494031170.0,494096830.0,494217280.0,494281920.0,494335300.0,494322460.0,494196450.0,494316930.0,494237250.0,494043000.0,494159040.0,494260960.0,494393180.0,494455500.0,494419140.0,494398530.0,494239140.0,494000200.0,493628640.0,493334240.0,493273100.0,493220770.0,493327740.0,493690300.0,494089380.0,494284500.0,494329380.0,494452670.0,494522200.0,494506500.0,494493540.0,494244030.0,493909100.0,493864260.0,493952220.0,493970430.0,493906720.0,493986400.0,494160320.0,494013250.0,493921100.0,494023170.0,493962180.0,493931140.0,493943840.0,494012740.0,494061060.0,494102370.0,494391460.0,494452030.0,494257600.0,494044200.0,493744900.0,493638900.0,493664100.0,493940320.0,494374800.0,494583000.0,494756960.0,494712900.0,494472740.0,494275200.0,493922600.0,493514000.0,493205340.0,493112580.0,493269700.0,493473760.0,493752200.0,494123170.0,494370020.0,494568860.0,494784400.0,494776800.0,494617020.0,494482500.0,494374050.0,494245950.0,494121950.0,494003840.0,493744960.0,493560100.0,493609600.0,493907680.0,494369900.0,494535600.0,494551580.0,494378370.0,493682940.0,493163260.0,493164700.0,493227040.0,493419870.0,493839360.0,494121120.0,494384580.0,494669700.0,494683900.0,494562020.0,494461120.0,494411800.0,494268770.0,494138500.0,494133340.0,494122460.0,494259040.0,494396160.0,494455330.0,494209730.0,493631100.0,493315870.0,492981860.0,492866700.0,493381700.0,493683460.0,493770180.0,494004130.0,494119000.0,493898140.0,493408670.0,493094980.0,493068670.0,493425950.0,494196100.0,494753730.0,494908960.0,494973280.0,495007970.0,494923260.0,494695330.0,494485820.0,494523300.0,494610720.0,494584740.0,494614820.0,494517900.0,494358140.0,494246800.0,494019550.0,493737820.0,493468930.0,493478400.0,493687140.0,493923230.0,494122140.0,494100500.0,494162750.0,494218880.0,494297020.0,494450750.0,494373630.0,494439230.0,494396740.0,494143700.0,494035460.0,493876640.0,493912300.0,494002500.0,494055420.0,494184770.0,494136900.0,494079940.0,493921400.0,493871550.0,494042900.0,493926080.0,493791230.0,493879900.0,494077150.0,494242750.0,494139300.0,493991740.0,493972830.0,493915700.0,493925340.0,493986500.0,493878460.0,493832220.0,494039520.0,494343520.0,494513300.0,494546400.0,494558000.0,494380380.0,494088450.0,493815780.0,493594200.0,493531500.0,493685470.0,494041570.0,494223580.0,494276060.0,494283070.0,494038940.0,494036450.0,494340160.0,494532860.0,494530500.0,494309060.0,494071140.0,493886460.0,493674300.0,493567170.0,493611620.0,493591700.0,493636130.0,494056450.0,494477250.0,494652060.0,494680130.0,494468260.0,494117340.0,493948670.0,494077100.0,494127600.0,493966050.0,493735550.0,493376960.0,493229730.0,493593180.0,494064770.0,494231800.0,494198820.0,494253980.0,494302140.0,494041570.0,493806180.0,493861700.0,493832500.0,493843000.0,494231740.0,494751740.0,494843780.0,494697660.0,494833280.0,494763460.0,494494140.0,494321280.0,493897300.0,493448220.0,493302980.0,493485220.0,493722750.0,493962270.0,494386370.0,494565120.0,494599420.0,494548450.0,494267800.0,494324900.0,494565570.0,494696000.0,494675140.0,494422600.0,494326000.0,494226180.0,494051420.0,494105060.0,494186660.0,494183650.0,494140320.0,494282980.0,494606050.0,494786600.0,494929280.0,494893760.0,494450660.0,493994880.0,493713950.0,493531650.0,493420930.0,493204700.0,493107230.0,493372960.0,493917060.0,494535000.0,494859460.0,495038560.0,495106700.0,495077470.0,495134140.0,495012740.0,494870940.0,494622100.0,494371970.0,494454720.0,494257300.0,493833000.0,493514720.0,493434140.0,493653280.0,493678270.0,493747460.0,493943260.0,493996700.0,494121250.0,494078400.0,494183680.0,494627550.0,494664420.0,494334340.0,494069700.0,494105730.0,494023170.0,493615460.0,493667000.0,494046140.0,494430140.0,494724540.0,494721180.0,494722430.0,494615650.0,494444700.0,494353920.0,494236930.0,494419360.0,494637570.0,494575000.0,494546980.0,494508480.0,494462430.0,494547600.0,494565920.0,494486620.0,494388960.0,494346270.0,494357340.0,494279200.0,494276770.0,494298600.0,494193300.0,494158900.0,494119600.0,494095900.0,494162340.0,493924600.0,493323600.0,492927460.0,493118200.0,493715550.0,494351870.0,494918720.0,495287300.0,495260900.0,495199840.0,495105000.0,494723330.0,494502050.0,494257540.0,493882370.0,493835300.0,493973660.0,494189820.0,494368600.0,494533860.0,494645200.0,494602980.0,494694600.0,494640860.0,494568830.0,494634750.0,494438750.0,494199230.0,493999900.0,493989400.0,494028380.0,494023100.0,494324830.0,494087840.0,493402720.0,493442100.0,493964540.0,494373570.0,494643870.0,494882180.0,494766720.0,494433000.0,494386720.0,494328600.0,494268600.0,494231650.0,493960220.0,493816500.0,493987520.0,494288770.0,494444000.0,494222270.0,494065440.0,494093020.0,493734140.0,493524930.0,493833000.0,494118180.0,494505250.0,494662140.0,494455200.0,494226720.0,493953440.0,494023940.0,494173150.0,494312960.0,494536700.0,494454940.0,494535550.0,494741470.0,494835970.0,494837540.0,494549300.0,494207650.0,493844600.0,493855360.0,494220130.0,494384740.0,494489820.0,494378020.0,494095200.0,493661200.0,493281300.0,493531140.0,493847400.0,494162800.0,494659070.0,494722240.0,494561860.0,494446980.0,493993900.0,493263700.0,493040480.0,493742850.0,494623000.0,495103700.0,495316380.0,495177470.0,494911460.0,494752830.0,494465100.0,494236450.0,494143650.0,494111140.0,494262340.0,494431000.0,494537760.0,494686700.0,494823330.0,494795420.0,494665700.0,494649180.0,494810270.0,494791680.0,494466940.0,494193400.0,493720300.0,493167550.0,492951740.0,493052130.0,493591360.0,494118980.0,494367870.0,494211200.0,493781730.0,493876670.0,494232500.0,494517020.0,494677820.0,494695740.0,494860800.0,494949150.0,495026400.0,494982200.0,494548320.0,494103680.0,493848450.0,493759840.0,493516740.0,493120580.0,493198750.0,493703460.0,494132770.0,494545380.0,494875870.0,494859970.0,494706700.0,494299070.0,493807970.0,493650080.0,493443900.0,493384100.0,493880400.0,494551600.0,494849120.0,494837280.0,494813760.0,494487230.0,494252800.0,494291500.0,494178270.0,494335000.0,494629700.0,494721300.0,494579070.0,494330050.0,494374460.0,494371620.0,494409700.0,494619330.0,494639140.0,494743700.0,494825250.0,494694430.0,494358660.0,494081860.0,494352060.0,494514600.0,494279140.0,494105060.0,493943870.0,493725440.0,493544670.0,493745500.0,494071330.0,494192670.0,494447940.0,494658080.0,494717220.0,494644580.0,494320700.0,493911900.0,493650880.0,493976740.0,494635140.0,494957760.0,495153440.0,495255000.0,495055420.0,494907840.0,494725760.0,494298140.0,493825700.0,493312640.0,492947100.0,492669760.0,492629020.0,493299940.0,494028700.0,494498000.0,494857470.0,494890560.0
494862560.0,494823170.0,494816640.0,494770180.0,494564770.0,494603300.0,494556800.0,494457200.0,494502300.0,494348900.0,494353920.0,494360200.0,494292740.0,494380260.0,494203500.0,493859870.0,493751070.0,493998560.0,494206800.0,494150900.0,494177180.0,494407600.0,494736450.0,494967780.0,495012640.0,494642560.0,493923360.0,493312130.0,493270240.0,493848420.0,494053400.0,493965060.0,494313120.0,494615200.0,494643040.0,494547420.0,494425300.0,494201180.0,493978340.0,494117660.0,494272580.0,494293500.0,494420900.0,494628670.0,494797060.0,494809180.0,494912960.0,495088640.0,495113920.0,495153800.0,495094500.0,494963200.0,494938200.0,494850100.0,494706800.0,494418900.0,494104640.0,494076540.0,494038980.0,494077150.0,494287400.0,494324900.0,494238270.0,493818940.0,493266560.0,493166850.0,493312300.0,493435800.0,493310100.0,493012000.0,493127460.0,493816300.0,494694980.0,495293100.0,495521180.0,495485380.0,495243970.0,495028060.0,494818270.0,494568320.0,494532500.0,494527800.0,494469200.0,494492060.0,494451940.0,494543040.0,494725600.0,494757020.0,494678050.0,494607000.0,494784320.0,494765340.0,494497440.0,494522620.0,494492600.0,494412770.0,494315840.0,494098100.0,494095140.0,493889570.0,493723070.0,494025470.0,494218200.0,494471100.0,494854530.0,495094240.0,495162180.0,494958620.0,494816740.0,494705920.0,494543840.0,494609540.0,494688030.0,494650020.0,494459000.0,494050080.0,493584400.0,493198750.0,493116670.0,493336860.0,493705540.0,494181900.0,494564200.0,494821730.0,494964350.0,495068350.0,495215170.0,494917730.0,494341900.0,494129300.0,494163200.0,494410720.0,494723840.0,494529200.0,494081540.0,493981600.0,493868000.0,493802660.0,494165340.0,494475970.0,494835700.0,495107620.0,495025760.0,495045060.0,494934400.0,494834000.0,494890400.0,494855420.0,494857730.0,494783230.0,494778270.0,494674660.0,494487870.0,494521400.0,494442780.0,494383360.0,494230100.0,493988400.0,493955420.0,493930020.0,494089150.0,494261000.0,494431550.0,494666720.0,494527260.0,494318080.0,494053500.0,493737340.0,493629440.0,493359460.0,493285730.0,493665340.0,494069900.0,494516130.0,494704700.0,494576000.0,494778880.0,495105600.0,495054900.0,494836540.0,494667420.0,494593060.0,494532200.0,494541900.0,494674940.0,494736220.0,494807100.0,494844540.0,494853380.0,494905570.0,494858020.0,494872100.0,494784130.0,494562200.0,494461400.0,494320930.0,494259300.0,494267230.0,494181340.0,494070300.0,494083840.0,494266100.0,494223780.0,494041900.0,493970750.0,494039650.0,494248670.0,494308960.0,494517500.0,494710240.0,494607700.0,494723780.0,494615260.0,494356160.0,494372830.0,494107070.0,493886180.0,493850980.0,493715230.0,493899000.0,494100300.0,494038500.0,494062660.0,494187140.0,494437700.0,494602000.0,494614660.0,494774560.0,494936350.0,495033540.0,495045340.0,495020600.0,495044060.0,494901820.0,494883140.0,494922980.0,494713760.0,494658800.0,494615360.0,494393200.0,494167000.0,494047840.0,494177440.0,494225700.0,494329540.0,494597020.0,494612400.0,494657000.0,494658660.0,494543680.0,494659740.0,494748740.0,494801180.0,494862080.0,494696960.0,494406140.0,494052130.0,493805570.0,493950000.0,494274980.0,494531230.0,494544930.0,494341100.0,494302430.0,494285730.0,494261760.0,494364000.0,494282020.0,493992700.0,493711800.0,493765400.0,493925400.0,493949440.0,494297200.0,494747300.0,495019680.0,495149470.0,494980320.0,494794940.0,494789150.0,494837570.0,494886140.0,494760260.0,494606820.0,494666720.0,494565060.0,494351170.0,494251300.0,494099420.0,494081250.0,494196100.0,494468740.0,494753300.0,494793630.0,494797400.0,494539200.0,494232420.0,494105100.0,493948930.0,494021120.0,494208130.0,494424960.0,494489120.0,494436500.0,494645760.0,494654900.0,494579840.0,494656000.0,494608640.0,494599840.0,494479680.0,494197250.0,493812260.0,493511650.0,493827800.0,494308930.0,494520320.0,494783940.0,494972300.0,494951520.0,494898340.0,494862800.0,494777500.0,494583970.0,494428670.0,494286140.0,493947040.0,493714140.0,493737800.0,493675070.0,493658900.0,493924640.0,494401700.0,494915650.0,495243460.0,495402660.0,495314100.0,495061300.0,494874460.0,494650300.0,494480830.0,494280930.0,493961000.0,493822180.0,493906720.0,494172640.0,494477440.0,494692220.0,494847400.0,494837920.0,494740320.0,494741800.0,494798300.0,494654940.0,494252480.0,493937280.0,493822140.0,493588500.0,493232500.0,493173860.0,493505470.0,494040800.0,494598460.0,495029760.0,495253120.0,495127580.0,494880960.0,494755650.0,494658800.0,494680640.0,494748770.0,494818940.0,494926720.0,494957100.0,495021500.0,495020960.0,494948220.0,494839070.0,494483700.0,494246000.0,494222140.0,494159140.0,494086880.0,493868320.0,493642000.0,493608300.0,493874270.0,494305100.0,494504400.0,494695140.0,494850900.0,494901600.0,495008930.0,494839870.0,494521180.0,494181000.0,494013220.0,494341380.0,494696770.0,495009920.0,495291140.0,495204800.0,494837980.0,494117400.0,493028100.0,492201280.0,492254370.0,493048200.0,493928580.0,494616700.0,495261250.0,495472960.0,495080960.0,494738850.0,494532540.0,494374400.0,494438530.0,494791780.0,495162720.0,495018980.0,494818850.0,494886430.0,494861200.0,494951520.0,495135580.0,495104640.0,494840420.0,494668350.0,494755500.0,494645150.0,494351800.0,494073180.0,493562370.0,493133920.0,493265950.0,493814100.0,494418560.0,494923740.0,495302400.0,495399900.0,495395000.0,495440800.0,495342940.0,495283700.0,495249100.0,495156540.0,495019700.0,494647420.0,494422900.0,494364960.0,494210660.0,494380900.0,494680300.0,494716580.0,494703170.0,494673400.0,494581860.0,494416030.0,494224900.0,494181660.0,494280900.0,494400500.0,494444350.0,494486140.0,494401440.0,494173250.0,494183300.0,494091330.0,493918620.0,494191360.0,494514560.0,494892900.0,495326700.0,495423040.0,495415550.0,495424770.0,495499200.0,495341000.0,494934400.0,494760060.0,494410980.0,494260300.0,494599780.0,494626560.0,494711400.0,494954850.0,494944960.0,494971300.0,494897860.0,494635330.0,494425700.0,494065280.0,493651800.0,493831700.0,494385700.0,494770080.0,495032260.0,495018750.0,494697660.0,494379420.0,494447300.0,494773630.0,494869250.0,494950240.0,495083330.0,495182880.0,495254800.0,495170500.0,495140900.0,494885980.0,494409730.0,494217280.0,494220130.0,494458200.0,494613570.0,494452930.0,494323230.0,494173630.0,494141000.0,494231140.0,494366800.0,494593660.0,494425700.0,494033180.0,493852860.0,493826720.0,494244580.0,494997600.0,495508260.0,495654460.0,495562240.0,495420380.0,495335870.0,495202430.0,495096200.0,495069820.0,494936830.0,494714900.0,494500060.0,494490500.0,494719800.0,494904130.0,494993440.0,494942560.0,494882850.0,494839360.0,494637440.0,494489660.0,494482560.0,494644060.0,494773000.0,494778430.0,494825600.0,494699550.0,494639840.0,494543520.0,494097180.0,493775100.0,493724130.0,493891260.0,494024260.0,493888350.0,493613800.0,493503260.0,493962300.0,494429860.0,494642500.0,495065630.0,495393100.0,495541900.0,495528580.0,495318140.0,495281250.0,495259600.0,495086980.0,494917220.0,494698880.0,494406530.0,494090240.0,493767460.0,493500220.0,493554750.0,493782850.0,493709540.0,493811680.0,494433950.0,494986460.0,495416670.0,495683170.0,495486240.0,495179500.0,494855520.0,494392600.0,494052860.0,493946460.0,494076200.0,494196380.0,494029660.0,494026780.0,494561820.0,495192540.0,495515400.0,495679700.0,495776420.0,495451330.0,494829060.0,494488700.0,494219650.0,493888930.0,493929800.0,494323870.0,494777340.0,495000900.0,495032800.0,495175360.0,495280540.0,495222370.0,495210980.0,495262340.0,495310980.0,495374620.0,495443000.0,495386750.0,495150400.0,495033630.0,494896900.0,494532400.0,494365340.0,494271700.0,493937570.0,493569150.0,493342430.0,493352700.0,493772800.0,494534000.0,495051400.0,495281200.0,495508600.0,495512100.0,495421800.0,495353100.0,495193000.0,494972900.0,494732130.0,494784500.0,494958980.0,494891070.0,494861000.0,494842800.0,494742370.0,494646180.0,494510000.0,494537280.0,494565860.0,494512860.0,494629800.0,494631460.0,494609400.0,494568450.0,494282300.0,494300060.0,494501760.0,494585180.0,494747000.0,494826050.0,494880260.0,494641340.0,494219840.0,494259840.0,494277860.0,494141630.0,493989820.0,493535200.0,493047580.0,492989570.0,493738560.0,494584000.0,494938900.0,495225900.0,495218700.0,495273540.0,495504350.0,495362850.0,495223940.0,495081380.0,494997800.0,494943940.0,494601060.0,494495870.0,494534000.0,494525820.0,494748800.0,494909100.0,494910750.0,494704130.0,494509660.0,494772860.0,494985500.0,495066880.0,495246270.0,495092450.0,494728060.0,494444130.0,494422180.0,494564800.0,494491940.0,494427970.0,494416830.0,494446340.0,494396540.0,494108580.0,494232740.0,494764860.0,495271170.0,495592320.0,495458370.0,495134900.0,494943070.0,494909980.0,494983550.0,495099620.0,495151460.0,494915550.0,494421900.0,493841600.0,493468450.0,493563330.0,493961000.0,494194430.0,494344930.0,494844670.0,495201600.0,495358500.0,495611740.0,495531040.0,495294240.0,494895420.0,494451970.0,494452800.0,494457180.0,494403460.0,494116000.0,493600260.0,493868500.0,494653150.0,495217730.0,495521000.0,495481020.0,495335200.0,495176030.0,495033920.0,495124100.0,495176260.0,495084580.0,495022080.0,494951740.0,494843170.0,494707870.0,494621570.0,494508800.0,494541630.0,494778600.0,494713820.0,494489630.0,494393630.0,494373060.0,494349820.0,494250700.0,494309200.0,494329380.0,494225000.0,494385400.0,494721820.0,494928860.0,494889950.0,494662240.0,494219330.0,493979520.0,494389300.0,494824830.0,494953760.0,494988740.0,494853980.0,494764640.0,494820960.0,494907620.0,495227000.0,495403600.0,495274370.0,495325380.0,495246400.0,495055900.0,494971650.0,494689150.0,494490900.0,494533220.0,494557100.0,494383700.0,494398600.0,494739500.0,494714080.0,494576800.0,494411070.0,493850430.0,493455040.0,493533540.0,493927780.0,494418100.0,494943300.0,495227400.0,495112740.0,494964670.0,494665400.0,494601950.0,494960580.0,495033470.0,494923870.0,494699400.0,494441730.0,494607070.0,494909120.0,495059070.0,495213470.0,495398240.0,495559600.0,495672900.0,495658140.0,495400260.0,494866340.0,494429060.0,494327650.0,494234880.0,494324500.0,494542800.0,494404640.0,494363260.0,494611940.0,494845440.0,494962980.0,495022400.0,495262500.0,495325760.0,495209280.0,495251870.0,495179070.0,495138750.0,495095260.0,494771900.0,494498660.0,494379400.0,494255360.0,494186140.0,494315680.0,494656800.0,494949380.0,494983520.0,494940300.0,494907620.0,494856580.0,494741820.0,494596000.0,494740580.0,494865660.0,494863740.0,494835200.0,494376000.0,494080740.0,494101950.0,494082700.0,494391330.0,494712540.0,494995870.0,495385800.0,495396960.0,495222530.0,495135040.0,494965400.0,494772260.0,494640670.0,494602500.0,494606180.0,494743870.0,495044670.0,495072960.0,494928060.0,494849600.0,494752860.0,494791600.0,495018430.0,495336200.0,495341920.0,495179360.0,495142080.0,494856600.0,494677700.0,494676300.0,494548580.0,494482600.0,494452260.0,494535550.0,494556320.0,494530180.0,494623520.0,494473060.0,494295300.0,494129440.0,493622600.0,493368860.0,493992130.0,495009540.0,495479940.0,495262800.0,494817800.0,494441340.0,494375230.0,494553800.0,494562560.0,494250530.0,494076900.0,494382720.0,494727680.0,494853950.0,495076930.0,495309660.0,495330340.0,495525300.0,495788260.0,495755840.0,495650200.0,495261820.0,494539800.0,493913380.0,493822500.0,494243360.0,494436260.0,494510050.0,494563000.0,494393800.0,494219780.0,493985700.0,494085820.0,494253020.0,494291140.0,494701000.0,494866270.0,494898400.0,495087600.0,495192500.0,495417760.0,495387040.0,495218600.0,495143500.0,494921920.0,494806560.0,494671360.0,494497300.0,494573300.0,494731300.0,494900580.0,495072450.0,495235900.0,495439070.0,495418700.0,495237630.0,495254880.0,495256670.0,495105540.0,494953100.0,494729820.0,494438660.0,494319300.0,494516800.0,494585120.0,494348030.0,494366720.0,494472320.0,494261760.0,493991500.0,493785100.0,493793570.0,493943600.0,493833500.0,493662500.0,493762240.0,494325150.0,495112130.0,495371870.0,495342460.0,495444860.0,495482500.0,495477440.0,495238530.0,494796480.0,494447140.0,494418800.0,494787940.0,495034240.0,495187520.0,495356580.0,495351400.0,495408130.0,495329860.0,495186940.0,495120130.0,494975170.0,494984600.0,494762240.0,494274000.0,494055420.0,493964380.0,494028350.0,494353700.0,494711040.0,494743740.0,494475300.0,494430080.0,494518080.0,494571170.0,494793570.0,495043070.0,495310000.0,495505570.0,495342300.0,494993950.0,494696480.0,494664130.0,494848740.0,494899840.0,494888350.0,494770600.0,494521900.0,494401600.0,494472130.0,494741000.0,494855200.0,494931360.0,495267550.0,495323460.0,495271230.0,495328100.0,495219550.0,495103940.0,494914000.0,494859360.0,494988860.0,495012860.0,495094900.0,495004640.0,494857660.0,494865300.0,494660200.0,494459870.0,494462300.0,494685500.0,494928860.0,494917120.0,495055900.0,495218530.0,495136770.0,495040130.0,494951840.0,494853570.0,494628500.0,494476320.0,494496500.0,494373570.0,494256480.0,494273660.0,494409900.0,494570300.0,494423580.0,494119970.0,494047230.0,494389200.0,494858700.0,494877730.0,494849950.0,494990400.0,494785060.0,494773060.0,495085280.0,495163040.0,495269800.0,495420900.0,495439940.0,495328200.0,494998600.0,494754240.0,494832860.0,494893600.0,494866340.0,494971840.0,494949900.0,494970940.0,495185000.0,495181500.0,495090080.0,494990270.0,494907970.0,494830900.0,494672420.0,494643100.0,494621280.0,494686660.0,494913120.0,495082620.0,495064830.0,494896480.0,494894100.0,494647650.0,494184770.0,494266530.0,494570400.0,494674460.0,494735100.0,494920220.0,494968640.0,494817120.0,494815200.0,494732700.0,494524800.0,494275140.0,494101540.0,494282240.0,494465440.0,494694240.0,494994800.0,494958620.0,495029280.0,495345440.0,495476670.0,495590340.0,495565630.0,495240860.0,495026180.0,494921920.0,494837570.0,494727970.0,494730370.0,494958300.0,494878600.0,494722720.0,494730300.0,494744260.0,494962720.0,495116320.0,495285340.0,495377250.0,495314460.0,495455420.0,495338560.0,495080770.0,494838750.0,494457100.0,494302750.0,494143200.0,494136900.0,494461380.0,494735070.0,494970900.0,494835400.0,494349900.0,494041760.0,494080960.0,494358080.0,494610370.0,494954370.0,495158080.0,495033920.0,495097660.0,494970050.0,494281950.0,493720540.0,493440670.0,493454660.0,493889860.0,493981340.0,494016670.0,494805950.0,495515740.0,495869860.0,495949630.0,495619140.0,495488160.0,495417280.0,495253380.0,495205200.0,495119520.0,495103580.0,495201020.0,495468580.0,495637540.0,495560860.0,495520600.0,495340450.0,495150660.0,495021380.0,494897440.0,494865920.0,494586430.0
494337020.0,494411870.0,494491650.0,494611800.0,494720450.0,494680400.0,494622000.0,494651870.0,494858020.0,494994780.0,494904100.0,494980580.0,495186000.0,495271140.0,495366940.0,495410880.0,495262240.0,494988450.0,494727140.0,494534050.0,494393570.0,494442620.0,494590880.0,494424930.0,494133760.0,494090780.0,494173300.0,494340300.0,494623420.0,495014000.0,495191140.0,495042270.0,495017100.0,495085120.0,495266880.0,495384670.0,495086200.0,494738940.0,494502460.0,494519200.0,494522270.0,494308930.0,494442560.0,494572300.0,494553800.0,494570850.0,494336400.0,494035330.0,493686140.0,493420260.0,493384130.0,493802050.0,494902600.0,495590500.0,495648480.0,495822270.0,495867680.0,495743940.0,495545300.0,495300860.0,495211040.0,495194850.0,495203550.0,495216350.0,495194530.0,495215140.0,495247300.0,495194780.0,495084900.0,494951580.0,494842200.0,494605120.0,494295500.0,494241920.0,494182750.0,494342430.0,494794600.0,494867550.0,494899780.0,494974560.0,494676450.0,494108400.0,493764160.0,494132060.0,494629380.0,495045660.0,495512770.0,495553060.0,495422400.0,495367460.0,495259360.0,495000100.0,494773860.0,494860830.0,494682850.0,494332700.0,494403170.0,494631330.0,494840770.0,495000300.0,495018900.0,494711330.0,494377180.0,494592960.0,494812500.0,494713470.0,494719520.0,494645100.0,494413860.0,494431260.0,494814300.0,495308700.0,495497860.0,495414530.0,495299070.0,494898080.0,494392540.0,494216640.0,494330940.0,494565060.0,494566240.0,494525100.0,494635420.0,494528450.0,494529380.0,494785380.0,494824960.0,494765920.0,494799970.0,494626850.0,494431970.0,494633100.0,494676800.0,494452500.0,494718100.0,495179740.0,495318940.0,495391400.0,495346300.0,495167940.0,495128600.0,495065100.0,494902560.0,494725220.0,494648740.0,494807580.0,494739620.0,494316160.0,494064830.0,494225540.0,494426080.0,494320420.0,494513300.0,494858620.0,494796300.0,495012200.0,495291650.0,495155360.0,495075260.0,495020640.0,494986560.0,495028540.0,494978750.0,494916220.0,494763800.0,494631300.0,494727500.0,494827400.0,494836130.0,494799100.0,494742800.0,494723940.0,494847680.0,495019200.0,494808350.0,494421920.0,494070940.0,493867460.0,494292700.0,494709540.0,494769600.0,494899650.0,494985400.0,495143900.0,495244740.0,495266000.0,495379680.0,495321340.0,495251400.0,495207870.0,495039230.0,494867800.0,494878240.0,495068130.0,494824220.0,494158300.0,493926460.0,494157380.0,494473540.0,494798200.0,494932400.0,494813570.0,494652450.0,494647100.0,494539230.0,494263460.0,494383360.0,494619870.0,494736260.0,495042200.0,495066340.0,494900930.0,494984860.0,495140160.0,495407680.0,495564350.0,495506200.0,495439420.0,495263400.0,495132160.0,494944670.0,494514240.0,494195870.0,494238050.0,494507940.0,494555140.0,494580350.0,494920130.0,495124220.0,495067420.0,494726850.0,494344400.0,494276540.0,494233250.0,494330240.0,494498270.0,494565340.0,494793400.0,494754080.0,494608960.0,494956380.0,495157920.0,494968480.0,494956900.0,495124300.0,495187800.0,495049730.0,494957950.0,495065250.0,495015200.0,494832700.0,494757730.0,494766500.0,494910660.0,495091070.0,495139550.0,494928130.0,494585060.0,494539260.0,494735780.0,494880900.0,494889920.0,494669440.0,494359740.0,494268260.0,494450530.0,494651700.0,494564540.0,494497060.0,494825540.0,495136900.0,495385400.0,495699620.0,495719940.0,495519100.0,495210530.0,494890700.0,494653980.0,494406880.0,494243460.0,494118300.0,494311230.0,494607650.0,494427840.0,494248580.0,494085600.0,493891230.0,493945920.0,494140260.0,494643420.0,495087400.0,495397950.0,495856770.0,495943230.0,495725630.0,495409060.0,495047680.0,494860400.0,494749280.0,494882850.0,495041300.0,494971460.0,494924100.0,494919300.0,495127170.0,495328960.0,495311330.0,495176770.0,494729950.0,494471800.0,494559460.0,494550300.0,494664580.0,494784030.0,494829220.0,495020450.0,495128960.0,495102000.0,494952000.0,494881500.0,495097380.0,495168540.0,495157760.0,495226880.0,495178200.0,495201400.0,495139400.0,494937250.0,494775900.0,494679070.0,494763680.0,494589280.0,494249730.0,494220670.0,494208960.0,494262370.0,494438430.0,494557820.0,494600450.0,494499200.0,494523330.0,494831840.0,495146880.0,495362340.0,495428700.0,495264740.0,495102820.0,495052400.0,495014050.0,494907620.0,494727870.0,494732740.0,494831100.0,494838530.0,494705660.0,494369570.0,494215420.0,494342940.0,494633340.0,494930000.0,495000350.0,495177920.0,495418400.0,495399140.0,495349660.0,495219330.0,494918370.0,494839330.0,494969180.0,495049630.0,495030720.0,494959780.0,495021900.0,494996030.0,494925200.0,494966850.0,494763940.0,494535840.0,494412930.0,494413000.0,494583040.0,494626940.0,494785000.0,494840130.0,494581820.0,494410180.0,494251680.0,494326270.0,494746700.0,495091170.0,494964930.0,494407700.0,494111330.0,494194050.0,494326750.0,494580400.0,494919070.0,495058850.0,495067230.0,495140960.0,495157200.0,495096420.0,495019330.0,495075870.0,495192640.0,495257120.0,495274270.0,495044830.0,495014530.0,495194000.0,495122180.0,494923260.0,494745380.0,494943780.0,495222600.0,495321150.0,495463940.0,495381900.0,495270820.0,495203360.0,495052860.0,494792830.0,494453500.0,494506800.0,494610000.0,494631040.0,494835780.0,494873570.0,494958340.0,495089380.0,495107200.0,495084200.0,494911420.0,494944800.0,495033900.0,495002900.0,495168600.0,495239650.0,495063400.0,494781400.0,494571420.0,494396100.0,494017150.0,493947400.0,494274430.0,494351700.0,494330240.0,494462530.0,494663520.0,494878620.0,494869150.0,494776260.0,494659070.0,494543040.0,494794880.0,494992800.0,495133800.0,495372740.0,495205630.0,494980800.0,494864900.0,494929900.0,495145400.0,495168000.0,495389100.0,495435000.0,495201020.0,495131420.0,494975100.0,494878400.0,494721200.0,494535840.0,494485540.0,494342700.0,494446880.0,494774200.0,495022880.0,495223230.0,495286980.0,495244740.0,495255070.0,495199650.0,495035330.0,494812500.0,494374300.0,494145800.0,494285300.0,494428200.0,494756400.0,494904350.0,494577730.0,494330560.0,494308320.0,494503360.0,494722940.0,494735460.0,494823580.0,494851520.0,494763600.0,494831000.0,495000220.0,495227970.0,495313570.0,495340740.0,495357280.0,495240600.0,495202460.0,495077600.0,495054820.0,495136060.0,494883230.0,494717760.0,494815100.0,495007360.0,495046050.0,494780100.0,494485600.0,494090940.0,493891360.0,494115870.0,494496100.0,494913020.0,495072580.0,495140350.0,495090340.0,494736540.0,494560500.0,494448420.0,494286500.0,494326430.0,494385180.0,494448600.0,494708160.0,495023650.0,494969150.0,494698900.0,494651100.0,494574880.0,494544700.0,494809700.0,495018780.0,495137950.0,495107260.0,494810200.0,494605300.0,494540030.0,494672160.0,495051550.0,495298050.0,495436300.0,495511550.0,495428900.0,495392800.0,495402850.0,495380770.0,495220670.0,495049700.0,495081600.0,494972220.0,494817820.0,494711070.0,494483140.0,494464670.0,494415100.0,494391740.0,494685900.0,494748540.0,494835620.0,495096260.0,495059800.0,494973200.0,494852800.0,494746940.0,494873900.0,494928000.0,494751680.0,494319420.0,493845540.0,493504860.0,493362900.0,493840450.0,494552670.0,495031550.0,495436160.0,495640480.0,495719000.0,495583700.0,495317760.0,495270850.0,495091740.0,494790700.0,494564670.0,494512130.0,494789000.0,495045020.0,495262370.0,495381250.0,495120830.0,494760200.0,494611740.0,494695140.0,494755330.0,494757470.0,494816400.0,494774240.0,494678980.0,494621440.0,494467360.0,494440450.0,494690800.0,494780640.0,494851070.0,495057400.0,495128960.0,495205950.0,495189060.0,495201500.0,495191780.0,494903330.0,494857380.0,494889120.0,494850980.0,494987550.0,494891140.0,494687230.0,494500320.0,494251000.0,494248300.0,494310200.0,494469150.0,494757540.0,494787420.0,494734500.0,494571200.0,494342270.0,494485280.0,494899230.0,495179000.0,494993860.0,494646600.0,494622900.0,494897700.0,495212600.0,495414500.0,495512220.0,495369400.0,495180220.0,494955040.0,494495840.0,494336320.0,494535420.0,494618800.0,494683170.0,494655550.0,494237660.0,493942050.0,494088960.0,494223700.0,494244480.0,494359230.0,494347600.0,493950050.0,494030400.0,494732930.0,495161250.0,495618880.0,495917280.0,495743100.0,495530660.0,495223780.0,495072670.0,494953470.0,494721500.0,494670530.0,494478800.0,494316640.0,494447330.0,494670820.0,494971500.0,495107100.0,495070900.0,494996030.0,494735840.0,494531780.0,494481540.0,494451260.0,494500380.0,494471170.0,494487520.0,494589730.0,494653120.0,494733340.0,494585380.0,494602370.0,494912930.0,495139780.0,495312900.0,495115260.0,494752500.0,494105570.0,493364300.0,493554370.0,493947520.0,494366720.0,495152260.0,495528060.0,495579800.0,495477020.0,495197220.0,494908740.0,494616450.0,494520100.0,494569120.0,494591460.0,494775260.0,495110400.0,495287680.0,495460500.0,495619300.0,495564540.0,495291420.0,494694900.0,494534300.0,494888500.0,494918700.0,494804500.0,494479970.0,493942700.0,493533340.0,493282180.0,493383360.0,493715400.0,494248540.0,494843900.0,495124700.0,494932060.0,494131230.0,493747000.0,494392130.0,494897540.0,495092540.0,495330180.0,495311360.0,495252700.0,494917100.0,494130000.0,493557150.0,493574720.0,494256860.0,494911100.0,495342270.0,495792030.0,495801150.0,495830000.0,495828500.0,495606820.0,495637250.0,495502180.0,495389630.0,495358880.0,495236540.0,495214270.0,495034400.0,494958430.0,494852380.0,494602370.0,494464420.0,494244030.0,494181820.0,494146750.0,494146080.0,494372260.0,494280260.0,494128030.0,494310000.0,494540400.0,494840450.0,495152130.0,495269630.0,495154270.0,494730340.0,494161600.0,493666200.0,493552800.0,494074940.0,494629540.0,495081760.0,495491100.0,495346880.0,495201800.0,495213500.0,494897630.0,494287260.0,493388800.0,492916350.0,492955840.0,493149200.0,493919300.0,494825280.0,495300320.0,495437570.0,495500320.0,495567650.0,495438270.0,495261800.0,494914800.0,494431870.0,494158750.0,493795300.0,493621250.0,494122270.0,494907800.0,495567650.0,495835070.0,495881440.0,495878500.0,495666180.0,495480300.0,495327740.0,495147260.0,495054940.0,494982400.0,494946560.0,494817800.0,494741920.0,494879580.0,494838180.0,494661600.0,494539500.0,494407800.0,494359260.0,494351600.0,494596900.0,495030050.0,495087970.0,494998560.0,494888130.0,494618560.0,494492770.0,494436450.0,494418600.0,494540300.0,494511520.0,494425470.0,494591780.0,494847360.0,495064450.0,495202500.0,495204160.0,495047420.0,494776200.0,494820580.0,495106660.0,495274400.0,495340740.0,495197570.0,495106300.0,495046980.0,494796320.0,494680770.0,494591600.0,494423040.0,494242270.0,494044580.0,493979620.0,493929440.0,494013820.0,494340350.0,494637220.0,494941500.0,495095070.0,494990050.0,495054900.0,495170020.0,495088960.0,494935870.0,494765570.0,494802940.0,494793920.0,494616030.0,494743700.0,494965220.0,495065900.0,495057120.0,494860130.0,494604400.0,494319650.0,494156500.0,494186500.0,494400480.0,494732580.0,494864580.0,494744260.0,494537950.0,494471460.0,494465000.0,494584130.0,495090660.0,495342270.0,495093340.0,494777340.0,494401600.0,494210560.0,494431900.0,494740300.0,494883360.0,494861250.0,494876220.0,495183360.0,495404400.0,495246620.0,495010880.0,494794700.0,494704130.0,494686140.0,494720740.0,494821570.0,494776200.0,494737760.0,494605980.0,494419260.0,494300260.0,494162370.0,494337180.0,494646820.0,495066560.0,495481250.0,495320030.0,495075620.0,494916380.0,494639800.0,494619300.0,494612030.0,494341100.0,494123620.0,494222660.0,494500220.0,494615200.0,494727520.0,494893100.0,494882370.0,494890780.0,494861120.0,494860640.0,495021120.0,494931620.0,494733300.0,494608200.0,494481380.0,494543680.0,494761000.0,494931520.0,494879940.0,494772380.0,494668540.0,494518600.0,494366400.0,493948380.0,493661920.0,493678340.0,493605600.0,493721280.0,494218240.0,494967420.0,495543040.0,495810700.0,495905400.0,495648860.0,495290880.0,495069950.0,494916540.0,494611360.0,494306080.0,494409470.0,494572580.0,494672960.0,494915230.0,495125440.0,495017300.0,494571700.0,494148380.0,493924580.0,493975460.0,494210660.0,494435600.0,494683780.0,495000670.0,495421950.0,495637150.0,495492860.0,495328350.0,495191650.0,495056060.0,495028700.0,494997000.0,494880500.0,494774370.0,494610270.0,494390820.0,494164300.0,493982750.0,494004160.0,493925920.0,493743000.0,493860380.0,494160700.0,494365860.0,494556380.0,495018800.0,495248580.0,495136100.0,495192350.0,494959800.0,494795780.0,495034750.0,495088320.0,495158720.0,495186720.0,495221660.0,495350720.0,495309980.0,495415140.0,495413400.0,495188130.0,495062300.0,494870700.0,494558270.0,494038620.0,493664600.0,493560350.0,493281300.0,493269860.0,493676700.0,494147230.0,494697380.0,495079840.0,495188900.0,495173380.0,495146300.0,495183400.0,495137100.0,495158500.0,495453570.0,495648830.0,495657380.0,495632030.0,495431520.0,495259780.0,495174820.0,495008930.0,494689470.0,494166600.0,493853100.0,493752800.0,493848480.0,494253440.0,494465760.0,494534720.0,494487140.0,494410800.0,494698620.0,494941980.0,495014180.0,494998050.0,494938270.0,494934620.0,494579520.0,494149860.0,494033020.0,493776030.0,493507840.0,493798530.0,494271550.0,494336670.0,494463040.0,494818370.0,494935040.0,495023070.0,495105660.0,495121570.0,495398900.0,495588320.0,495411260.0,495289280.0,495337340.0,495299550.0,495142100.0,494855580.0,494453820.0,494196060.0,494097730.0,494226720.0,494621630.0,494943070.0,494983800.0,494669000.0,494533020.0,494823100.0,494968130.0,494969500.0,494911330.0,494837600.0,494773150.0,494656160.0,494623330.0,494306660.0,493924960.0,494103400.0,494511700.0,494878200.0,495159700.0,495254240.0,495220930.0,495221340.0,495311500.0,495257540.0,495096350.0,494959580.0,494761440.0,494677980.0,494765400.0,494835780.0,494819900.0,494736450.0,494842400.0,495104450.0,495190100.0,495256540.0,495245700.0,495057500.0,495050880.0,495130400.0,495133340.0,494965060.0,494685860.0,494651200.0,494516220.0,494251170.0,494218200.0,494206700.0,494240830.0,494340540.0,494463170.0,494522780.0,494468770.0,494502340.0,494419870.0,494421820.0,494599330.0,494492320.0,494396830.0,494637380.0,494953540.0,494819040.0,494521820.0,494537470.0,494388060.0,494389950.0,494656350.0,494835230.0,495183140.0,495220580.0,495055100.0,495150620.0,495027550.0,494741730.0,494441500.0,494104740.0,494205100.0,494727780.0,495145920.0,495449100.0,495650900.0,495594240.0,495326300.0,495007650.0,494931070.0,494849100.0,494672220.0,494611740.0,494401020.0,494195360.0,494160930.0,494432640.0,494838180.0,494833540.0,494873120.0,495059840.0,495060540.0,495049400.0,494871870.0,494587740.0,494486430.0,494430270.0,494524380.0,494814660.0,494937800.0,494948160.0,494885820.0,494776930.0
494716160.0,494554500.0,494457020.0,494450880.0,494592260.0,494740960.0,494689280.0,494878940.0,495103650.0,495104830.0,494918880.0,494568580.0,494353020.0,494087580.0,493892930.0,493895800.0,493901600.0,494183940.0,494696930.0,495126800.0,495385660.0,495538200.0,495512400.0,495356580.0,495350660.0,495373700.0,495279200.0,495215840.0,495268580.0,495239970.0,495211620.0,495251000.0,495126850.0,495064000.0,494995200.0,494764500.0,494478430.0,494301660.0,494358820.0,494166370.0,493893470.0,493741660.0,493623550.0,494048130.0,494649700.0,495030940.0,495162460.0,495068830.0,494960300.0,494440670.0,494103300.0,494417600.0,494625730.0,494842100.0,495139460.0,495295520.0,495215360.0,494793020.0,494381730.0,494030620.0,493918200.0,494247040.0,494640350.0,495011420.0,495282700.0,495306660.0,495180030.0,495084160.0,495180640.0,495265250.0,495149150.0,495034020.0,494989020.0,494936350.0,494864030.0,494726720.0,494635870.0,494572350.0,494543400.0,494540160.0,494288500.0,494193570.0,494287300.0,494217200.0,494279200.0,494368350.0,494575780.0,494764100.0,494755170.0,495007680.0,494973700.0,494897340.0,495307040.0,495312900.0,495105180.0,494986270.0,494676800.0,494297540.0,493975070.0,494100000.0,494387500.0,494480740.0,494529150.0,494454800.0,494564100.0,494730850.0,494802020.0,495074850.0,495206340.0,495180600.0,495112930.0,494875800.0,494789440.0,494878240.0,494996350.0,495166270.0,495304860.0,495386140.0,495307420.0,495079680.0,494915070.0,494761730.0,494549470.0,494435100.0,494388860.0,494280700.0,494124830.0,494110400.0,494325100.0,494335650.0,494155460.0,494297380.0,494511600.0,494638100.0,494888700.0,494956500.0,494725700.0,494555300.0,494691740.0,494899680.0,495065300.0,495373820.0,495367360.0,495112220.0,495094200.0,495055520.0,494976450.0,494789300.0,494450900.0,494247650.0,494247840.0,494362750.0,494418980.0,494600640.0,494827500.0,494806100.0,494720860.0,494612800.0,494656400.0,494805660.0,494866080.0,495028300.0,495025600.0,494948930.0,495102500.0,495039140.0,494745470.0,494579650.0,494553020.0,494491650.0,494394500.0,494485380.0,494665900.0,494883260.0,495129570.0,495103870.0,494819520.0,494436960.0,494206700.0,494430140.0,494738660.0,494876930.0,495049820.0,494996500.0,494798560.0,494827400.0,494831780.0,494782980.0,494783200.0,494756200.0,494554340.0,494408540.0,494816320.0,495094050.0,495069020.0,495203680.0,495090180.0,494940400.0,494856350.0,494715940.0,494541300.0,494147870.0,493949800.0,493845900.0,493868000.0,494210620.0,494469300.0,494867970.0,495171600.0,495311940.0,495453800.0,495226780.0,495135550.0,495070050.0,494711460.0,494476800.0,494374080.0,494543170.0,494738800.0,494775360.0,494879000.0,494939550.0,495026180.0,495086620.0,494986780.0,494794980.0,494715140.0,494570850.0,494091840.0,493741950.0,493587000.0,493671140.0,494072220.0,494512900.0,494947420.0,495078880.0,495247230.0,495441440.0,495260670.0,495220700.0,495217630.0,495283620.0,495330500.0,495194620.0,495285800.0,495158000.0,494985700.0,494981860.0,494814340.0,494742000.0,494675230.0,494734000.0,494797630.0,494663700.0,494631500.0,494513570.0,494558820.0,494692380.0,494402270.0,494123700.0,494041250.0,494002000.0,493902270.0,493709630.0,493794560.0,494122080.0,494341100.0,494464060.0,494541950.0,494596000.0,494803600.0,495072670.0,495255650.0,495342880.0,495229730.0,495099040.0,495060740.0,495073100.0,495017500.0,494870140.0,494937800.0,495083360.0,495224500.0,495257060.0,495164830.0,495236600.0,495049120.0,494799330.0,494754660.0,494557470.0,494482000.0,494421500.0,494146430.0,493697180.0,493555940.0,494109980.0,494469380.0,494704300.0,495101730.0,495198270.0,495369250.0,495505570.0,495411970.0,495160540.0,494882850.0,495001400.0,495028770.0,494942700.0,495010600.0,494933100.0,494908260.0,494847740.0,494671780.0,494481150.0,494309440.0,494466720.0,494668900.0,494638200.0,494670140.0,494712420.0,494647140.0,494641120.0,494745380.0,494890800.0,494898240.0,494809800.0,494699840.0,494454430.0,494406140.0,494355620.0,494070100.0,494055800.0,494203970.0,494415000.0,494510180.0,494409820.0,494315680.0,494035140.0,494229900.0,494867940.0,495185570.0,495315800.0,495195460.0,495107460.0,495098370.0,494920900.0,494927330.0,495119100.0,495332220.0,495451260.0,495515330.0,495517470.0,495428300.0,495363520.0,495271500.0,495225800.0,495077760.0,494881000.0,494673060.0,494313700.0,494339800.0,494675460.0,494870050.0,494890050.0,494684860.0,494555170.0,494544100.0,494621800.0,494868600.0,495021980.0,495341800.0,495683520.0,495696770.0,495823420.0,495792130.0,495647140.0,495657500.0,495502820.0,495430400.0,495203000.0,494984670.0,495141150.0,495203170.0,495316300.0,495390660.0,495370300.0,495290270.0,495111000.0,495141280.0,494983520.0,494881600.0,495038660.0,494991550.0,495123140.0,495390820.0,495576450.0,495612450.0,495424300.0,495432930.0,495482100.0,495441540.0,495532830.0,495526800.0,495407360.0,495314940.0,495220960.0,495006430.0,494609340.0,494465250.0,494647740.0,494708000.0,494798980.0,494936200.0,494917700.0,495033820.0,495349000.0,495668130.0,495756000.0,495670800.0,495652450.0,495514850.0,495407070.0,495462600.0,495442750.0,495495040.0,495610560.0,495648670.0,495605900.0,495559800.0,495632130.0,495573540.0,495487680.0,495524500.0,495436400.0,495374140.0,495360740.0,495368260.0,495351780.0,495192700.0,495174400.0,495173980.0,495094100.0,495114880.0,495098400.0,495092400.0,495102800.0,495135500.0,495237200.0,495218700.0,495212700.0,495204300.0,494984400.0,494861380.0,494895970.0,494957440.0,495123300.0,495280100.0,495424030.0,495417540.0,495246800.0,495231300.0,495186370.0,495067900.0,495062370.0,495061380.0,495107070.0,495199970.0,495233630.0,495201800.0,495137150.0,495144600.0,495153470.0,495018530.0,494874240.0,494695780.0,494357800.0,494119700.0,494249470.0,494583700.0,494736130.0,494836800.0,495005950.0,494947600.0,494807260.0,494702180.0,494576100.0,494594300.0,494878300.0,495271780.0,495376900.0,495214460.0,494986370.0,494800220.0,494806660.0,494732740.0,494420640.0,494309980.0,494542300.0,494732380.0,494861100.0,495043420.0,495180060.0,495239500.0,495107400.0,495007740.0,494961860.0,494795000.0,494774270.0,494771680.0,494721820.0,494602850.0,494572740.0,494900350.0,494999840.0,494911100.0,494752320.0,494451500.0,494511780.0,494647740.0,494774720.0,494845220.0,494605660.0,494542850.0,494426460.0,494087800.0,493922400.0,493991360.0,494375680.0,494782820.0,495059300.0,495190820.0,495068830.0,495059230.0,495083900.0,494981820.0,494964350.0,494893300.0,494808450.0,494776200.0,494719200.0,494665250.0,494521250.0,494483420.0,494517700.0,494434080.0,494475170.0,494492930.0,494463070.0,494517020.0,494449630.0,494293800.0,494173700.0,494231840.0,494148260.0,493831550.0,493938660.0,494209900.0,494328860.0,494497800.0,494555940.0,494450940.0,494054940.0,493761570.0,493973760.0,494148380.0,494338370.0,494565120.0,494650620.0,494858800.0,494841630.0,494763230.0,494805500.0,494670460.0,494705100.0,494655970.0,494550880.0,494620350.0,494494180.0,494475970.0,494478720.0,494479780.0,494585630.0,494341570.0,494183550.0,494316260.0,494213120.0,493970270.0,493833540.0,493794660.0,493998400.0,494296160.0,494414340.0,494427330.0,494380930.0,494477900.0,494530000.0,494476260.0,494562400.0,494476700.0,494394100.0,494254400.0,493840200.0,493508670.0,493463360.0,493956320.0,494532830.0,494760320.0,494851800.0,494713920.0,494453730.0,494267970.0,494184540.0,494107260.0,493968670.0,494017920.0,494186880.0,494177300.0,494202200.0,494410460.0,494508580.0,494558750.0,494618980.0,494450050.0,494129700.0,494010240.0,494200800.0,494317380.0,494399970.0,494563170.0,494520960.0,494469660.0,494451070.0,494413100.0,494370240.0,494218620.0,494256060.0,494344930.0,494300350.0,494320700.0,494287200.0,494264600.0,494238820.0,494124960.0,494089920.0,494081470.0,494166750.0,494325440.0,494305020.0,494146020.0,493945540.0,493900320.0,494060860.0,494195200.0,494321800.0,494287040.0,494166980.0,494268900.0,494245570.0,494124930.0,494117860.0,494194620.0,494398340.0,494432060.0,494471600.0,494516100.0,494394720.0,494463330.0,494442660.0,494416030.0,494512060.0,494379700.0,494306620.0,494290340.0,494271200.0,494238370.0,494131940.0,494187900.0,494111360.0,493956500.0,493901980.0,493793300.0,493919420.0,494096130.0,494215550.0,494343330.0,494300860.0,494368160.0,494330340.0,494173660.0,494221600.0,494101730.0,493949630.0,493972600.0,494068900.0,494241340.0,494320500.0,494350880.0,494405860.0,494429340.0,494348450.0,494304740.0,494304540.0,494103550.0,493948860.0,493956300.0,493988670.0,493975840.0,494048860.0,494257440.0,494222720.0,494136740.0,494134850.0,494083330.0,494026900.0,493931000.0,493995070.0,493969800.0,493983140.0,494207360.0,493999360.0,493746500.0,493802720.0,493923840.0,494029700.0,493892540.0,493697820.0,493542880.0,493679970.0,494150340.0,494430940.0,494612700.0,494578000.0,494480740.0,494588900.0,494486400.0,494221400.0,493753600.0,493565100.0,493995330.0,494217700.0,494426340.0,494664450.0,494568420.0,494579460.0,494566850.0,494481820.0,494418140.0,494246720.0,494241340.0,494284200.0,494239900.0,494232420.0,494155140.0,494074080.0,494052220.0,494024100.0,493929180.0,493621340.0,493255680.0,493120600.0,493171100.0,493386750.0,493625300.0,493752480.0,494019140.0,494270600.0,494294500.0,494358370.0,494506530.0,494489920.0,494276900.0,494242500.0,494365860.0,494375870.0,494427420.0,494513440.0,494605300.0,494576600.0,494450400.0,494534000.0,494447500.0,494216540.0,494197440.0,494174100.0,494164580.0,494088100.0,493947070.0,493840600.0,493746080.0,493856640.0,493924670.0,493917700.0,494024700.0,494012380.0,494009730.0,494092450.0,494196700.0,494320300.0,494300540.0,494349860.0,494482200.0,494447700.0,494423170.0,494368580.0,494186780.0,494055460.0,493982940.0,493927400.0,493778720.0,493665060.0,493724640.0,493636540.0,493556450.0,493652320.0,493732160.0,493917500.0,494127100.0,494349440.0,494521060.0,494390140.0,494290660.0,494329540.0,494238600.0,494154340.0,494239600.0,494300220.0,494240930.0,494229600.0,494250940.0,494194300.0,494055260.0,493928130.0,493710800.0,493354270.0,493208130.0,493316160.0,493605020.0,493922880.0,494095260.0,494289200.0,494310340.0,494236350.0,494296220.0,494233920.0,494188380.0,494159800.0,494102000.0,494196640.0,494284060.0,494303260.0,494199940.0,494146200.0,494226200.0,494172700.0,494209820.0,494291700.0,494300000.0,494382750.0,494377250.0,494317820.0,494083740.0,493855420.0,493939420.0,493906000.0,493831420.0,493716540.0,493459780.0,493403000.0,493341660.0,493472000.0,493791740.0,493883070.0,493993950.0,493804770.0,493517700.0,493762880.0,494102700.0,494392130.0,494486300.0,494387840.0,494350500.0,494175360.0,494178800.0,494299800.0,494265000.0,494208200.0,493961120.0,493847840.0,493845820.0,493686750.0,493618020.0,493625950.0,493911550.0,494222620.0,494246050.0,494280700.0,494173570.0,494063900.0,494092130.0,494037470.0,494000640.0,493966750.0,493970340.0,494002050.0,494028900.0,494151460.0,494186900.0,494181600.0,494250700.0,494218720.0,494096200.0,493917700.0,493830140.0,493915400.0,493917540.0,493961280.0,494078080.0,494006400.0,493997060.0,494107520.0,494115070.0,494005980.0,493843900.0,493803900.0,493653440.0,493409760.0,493455100.0,493558240.0,493785300.0,494110900.0,494235940.0,494260500.0,493983680.0,493772450.0,493802980.0,493508500.0,493391170.0,493689020.0,493951840.0,494201100.0,494405400.0,494374750.0,494009180.0,493660220.0,493615550.0,493725630.0,493953900.0,494186850.0,494397280.0,494545920.0,494453280.0,494365200.0,494319400.0,493982340.0,493564160.0,493337400.0,493145540.0,493066080.0,493209600.0,493454600.0,493852480.0,494238850.0,494356300.0,494308220.0,494343070.0,494498270.0,494442720.0,494339650.0,494374430.0,494250240.0,494141900.0,494159500.0,494198370.0,494067870.0,493831460.0,493769400.0,493458140.0,493188770.0,493325300.0,493404930.0,493494660.0,493462750.0,493331260.0,493209500.0,493161820.0,493669500.0,494188220.0,494442140.0,494679400.0,494634300.0,494448000.0,494146900.0,494012670.0,494133220.0,493997600.0,493966720.0,494104400.0,494030300.0,493912600.0,493697570.0,493555200.0,493707900.0,493806880.0,493833400.0,493657800.0,493352450.0,493481630.0,493611230.0,493542620.0,493477860.0,493242700.0,493244060.0,493635400.0,494166750.0,494469860.0,494583580.0,494793820.0,494657020.0,494490500.0,494498050.0,494347070.0,494330500.0,494308160.0,494258300.0,494156030.0,493987650.0,494048400.0,493972000.0,493859900.0,493915740.0,493892160.0,493949340.0,494041440.0,494114850.0,494079740.0,493790180.0,493471550.0,493147700.0,493003420.0,493198370.0,493502000.0,493805660.0,493876100.0,493865280.0,493983330.0,493876600.0,493868960.0,494151500.0,494206820.0,494190700.0,494132860.0,493915940.0,493895100.0,493974660.0,494114340.0,494299550.0,494262400.0,494164740.0,494072540.0,494000400.0,494046850.0,493980000.0,493795870.0,493714080.0,493678340.0,493591680.0,493209280.0,492658880.0,492652320.0,492968640.0,493324860.0,493705660.0,493524740.0,493315970.0,493603700.0,493888670.0,494015200.0,494011600.0,494060030.0,493947800.0,493782660.0,494054080.0,494173100.0,494083900.0,494194080.0,494351330.0,494465020.0,494281630.0,494028900.0,493984580.0,493812030.0,493540670.0,493472830.0,493740960.0,493997540.0,493878940.0,493594080.0,493475870.0,493702880.0,493701860.0,493233000.0,493183140.0,493504800.0,493664540.0,493759870.0,493750370.0,493729120.0,493806820.0,494010530.0,494355650.0,494496740.0,494461800.0,494405630.0,494241440.0,494151650.0,494101060.0,493964260.0,493772100.0,493735400.0,493941950.0,494039360.0,494201100.0,494331040.0,494174370.0,494193660.0,494259000.0,494286300.0,494237950.0,493948160.0,493863330.0,493869760.0,493840800.0,493905820.0,493904130.0,493889920.0,493832640.0,493814400.0,493766560.0,493656500.0,493811100.0,493911780.0,493898940.0,494061920.0,494153300.0,494168700.0,494091780.0,493911780.0,493723230.0,493429100.0,493259420.0,493148380.0,493087700.0,493215700.0,493149440.0,493210000.0,493487700.0,493672670.0,494107600.0,494436830.0,494430200.0,494343680.0,494203800.0,494199700.0,493972200.0,493618200.0,493676930.0,493847100.0,494076540.0,494357440.0,494448580.0,494467940.0,494491500.0,494426900.0,494334720.0,494333950.0,494280500.0,494248220.0,494301120.0,494267840.0,494142980.0,493992030.0,493986000.0,493826200.0,493516400.0,493531900.0,493616300.0,493480060.0,493149340.0,493042300.0,493130620.0,493127460.0,493412800.0,493695580.0,493868960.0,493997730.0,493919330.0,494141440.0,494430050.0,494467700.0,494348100.0
494121020.0,494162800.0,494230620.0,494249600.0,494357440.0,494277570.0,494170800.0,494088580.0,494038180.0,494022880.0,493744400.0,493446620.0,493372770.0,493325760.0,493282750.0,493028860.0,492390080.0,491948100.0,492175360.0,492794140.0,493340300.0,493759520.0,494128100.0,494249280.0,494355140.0,494460480.0,494332900.0,494401000.0,494506430.0,494467400.0,494313630.0,493901000.0,493658340.0,493344960.0,492856740.0,492607970.0,492645900.0,493109280.0,493526940.0,493869760.0,494305120.0,494459550.0,494385340.0,493816480.0,492965440.0,492355170.0,492016860.0,492005700.0,492234000.0,492883100.0,493557280.0,493885660.0,494221920.0,494383170.0,494323700.0,493971970.0,493334880.0,492987550.0,493265380.0,494067780.0,494666430.0,494687140.0,494367330.0,493763230.0,493134080.0,492770750.0,492668500.0,492838660.0,493416480.0,494103040.0,494437250.0,494408350.0,494294080.0,494266460.0,494039600.0,493975070.0,494295000.0,494421380.0,494559700.0,494621000.0,494494050.0,494370020.0,494098720.0,493987600.0,493801760.0,493562400.0,493442020.0,493050500.0,492939650.0,493250560.0,493746080.0,494243740.0,494363800.0,494407040.0,494357280.0,494189150.0,494025900.0,493579360.0,492836200.0,492324200.0,492408030.0,492637950.0,492914140.0,493042940.0,492883260.0,492890430.0,492756830.0,492831040.0,493421630.0,493992480.0,494503970.0,494553020.0,494104320.0,493554000.0,493276100.0,493604770.0,494038940.0,494292320.0,494251740.0,493771650.0,493342400.0,493304320.0,493477920.0,493678400.0,493929250.0,494145100.0,494131550.0,494021600.0,494091400.0,494205200.0,494273280.0,494356960.0,494038700.0,493204830.0,492537470.0,492661920.0,493381380.0,494081250.0,494525470.0,494649400.0,494355840.0,493551870.0,492633300.0,492378080.0,492837400.0,493653920.0,494394430.0,494681860.0,494852200.0,494937630.0,494715740.0,494532380.0,494294980.0,493857820.0,493344800.0,492897760.0,492819550.0,493014980.0,493523170.0,494151700.0,494446100.0,494488500.0,494346780.0,494260740.0,494077730.0,493750080.0,493696100.0,493676350.0,493765060.0,493855500.0,493704770.0,493625020.0,493604060.0,493859740.0,494114370.0,494095550.0,494296450.0,494354370.0,494267700.0,494380960.0,494340320.0,494221920.0,494109300.0,493990530.0,493901020.0,493670750.0,493415040.0,493267900.0,493208000.0,493085860.0,492836000.0,492704200.0,492844860.0,493278940.0,493493340.0,492973500.0,492579870.0,492870820.0,493353570.0,494054430.0,494635520.0,494754720.0,494751070.0,494618940.0,494575500.0,494514620.0,494176000.0,493963500.0,493849760.0,493802880.0,493878880.0,493718340.0,493317730.0,493078940.0,493324220.0,493917020.0,494309200.0,494481570.0,494627680.0,494448220.0,494196220.0,494095500.0,493931260.0,493923870.0,493922100.0,493834880.0,493747500.0,493538500.0,493469000.0,493350820.0,493094000.0,493227780.0,493728900.0,494251100.0,494499300.0,494228100.0,493597150.0,493070140.0,493039400.0,493435740.0,493780900.0,493986370.0,494009340.0,493633280.0,493388930.0,493535400.0,493605540.0,493763260.0,494249280.0,494604770.0,494627650.0,494528220.0,494408900.0,494308100.0,494117380.0,494011200.0,494075230.0,493950000.0,493870530.0,493866400.0,493575700.0,493353760.0,493449950.0,493640670.0,493712420.0,493769000.0,493917500.0,493733570.0,493510880.0,493878180.0,494106200.0,493899650.0,493679680.0,493250500.0,493120580.0,493505900.0,493890100.0,494209500.0,494092030.0,493905340.0,493848300.0,493392740.0,493153100.0,493208160.0,493240800.0,493571780.0,494145060.0,494605950.0,494739620.0,494773400.0,494695400.0,494419400.0,494015550.0,493419460.0,493148800.0,493406530.0,493752480.0,493974940.0,493781000.0,493229250.0,492934560.0,492911200.0,493010940.0,493502560.0,494063500.0,494379520.0,494526340.0,494326660.0,493937700.0,493749150.0,493751460.0,493838720.0,494149020.0,494381150.0,494336740.0,494502140.0,494579000.0,494353820.0,494126600.0,493819550.0,493697660.0,493706780.0,493714270.0,493893000.0,493953660.0,493933100.0,494030750.0,494167500.0,494278300.0,494188220.0,494095580.0,494245000.0,494283230.0,494233950.0,494276030.0,494047420.0,493609150.0,493153470.0,492612480.0,492225920.0,492417120.0,493084700.0,493530000.0,493867940.0,494015360.0,493528480.0,493120450.0,492732900.0,492582980.0,493355260.0,494103140.0,494622530.0,495094820.0,495085630.0,494820640.0,494615070.0,494534900.0,494311680.0,493916640.0,493574240.0,493126100.0,492874600.0,493110370.0,493499140.0,494068160.0,494636900.0,494746900.0,494619620.0,494414700.0,494211620.0,493927870.0,493668300.0,493807800.0,493603600.0,493222700.0,493402080.0,493598300.0,493768700.0,493795780.0,493694300.0,493888540.0,494000480.0,493955520.0,493900350.0,493939740.0,494030720.0,493859200.0,493512030.0,492820030.0,492147260.0,492191940.0,492777800.0,493826000.0,494709120.0,494957060.0,495083780.0,495025200.0,494823000.0,494674270.0,494467040.0,494276900.0,494072930.0,494098020.0,494350850.0,494298800.0,494075520.0,493967170.0,493881340.0,493818900.0,493712800.0,493552350.0,493408200.0,493328160.0,493412350.0,493583200.0,493865060.0,494263200.0,494491740.0,494484000.0,494395300.0,494348770.0,494177760.0,493812640.0,493665440.0,493735300.0,493882460.0,494159330.0,494278430.0,494106430.0,493733950.0,493434270.0,493442780.0,493637280.0,493843700.0,493785860.0,493735740.0,493845380.0,493489630.0,492902270.0,492518750.0,492495460.0,493066560.0,493641380.0,494167940.0,494686050.0,494380380.0,493698430.0,493354140.0,493366080.0,493668380.0,493872960.0,494054180.0,494053500.0,493764320.0,493747070.0,493702370.0,493370000.0,493301730.0,493643620.0,494031420.0,494300200.0,494441060.0,494518000.0,494568600.0,494574560.0,494716400.0,494655230.0,494383040.0,494133200.0,493706500.0,493632160.0,493880860.0,494067230.0,494162180.0,493995870.0,493748450.0,493415260.0,493242600.0,493338000.0,493572220.0,493952100.0,494099300.0,494228600.0,494272450.0,494124060.0,494129500.0,493879600.0,493527680.0,493353800.0,493254340.0,493443300.0,493794600.0,494161180.0,494239100.0,494003040.0,493980400.0,493802900.0,493368640.0,493438370.0,493689700.0,493661020.0,493584160.0,493523680.0,493654430.0,493828740.0,493887580.0,493783550.0,493308260.0,493065120.0,493274340.0,493605630.0,494166720.0,494708800.0,494988770.0,494898300.0,494586900.0,494456580.0,494185730.0,493760830.0,493611360.0,493787260.0,494082270.0,494069250.0,494028700.0,494101950.0,494151000.0,494447300.0,494460350.0,494200160.0,493950200.0,493334300.0,492761280.0,492558340.0,492628500.0,492851300.0,493225020.0,493719400.0,493948540.0,493971620.0,493758880.0,493350270.0,493182850.0,493291100.0,493811550.0,494522850.0,494812960.0,494812350.0,494703200.0,494479600.0,494437100.0,494495140.0,494499680.0,494497340.0,494150140.0,493510850.0,493031230.0,492931940.0,493030900.0,493014400.0,493216800.0,493655800.0,493993440.0,494156830.0,494085540.0,494223140.0,494434600.0,494129020.0,493752600.0,493673200.0,493722750.0,494014850.0,494405950.0,494444100.0,494177380.0,493796900.0,493730900.0,494161760.0,494470100.0,494595400.0,494530020.0,494164220.0,493797820.0,493319520.0,492972320.0,493180480.0,493618720.0,493844060.0,493913730.0,494012220.0,493971460.0,493971520.0,494078530.0,493935900.0,493891550.0,494141220.0,494214100.0,494057630.0,493983460.0,494122100.0,494206370.0,494088900.0,494157100.0,494264420.0,494016350.0,493647500.0,493256640.0,492957630.0,492901950.0,493121440.0,493509300.0,493687780.0,494031100.0,494507140.0,494616830.0,494783550.0,494898530.0,494859040.0,494770080.0,494509570.0,494391580.0,494191300.0,494069280.0,494099740.0,493718300.0,493305000.0,492817900.0,492290980.0,492219260.0,492331870.0,492609300.0,493033340.0,493532740.0,494156380.0,494525570.0,494497800.0,494321860.0,494058620.0,493679900.0,493513600.0,493765200.0,494247870.0,494683040.0,494844220.0,494787460.0,494580580.0,494184160.0,493764800.0,493638050.0,493716480.0,493862240.0,494156540.0,494335900.0,494421000.0,494489440.0,494409400.0,494350660.0,494303550.0,494295800.0,494204700.0,494029900.0,494086000.0,494012860.0,493799520.0,493620500.0,493361820.0,493334530.0,493444220.0,493636350.0,493896800.0,493956480.0,493917820.0,493786180.0,493814270.0,493992420.0,493999170.0,493969920.0,493784960.0,493510180.0,493279100.0,493183580.0,493354660.0,493535200.0,494021920.0,494543360.0,494383200.0,494075870.0,493962940.0,494124640.0,494383360.0,494154750.0,493967420.0,493981570.0,493686080.0,493419360.0,493127900.0,492902800.0,493348060.0,493894100.0,494070100.0,494278100.0,494506780.0,494601250.0,494675460.0,494679580.0,494531100.0,494388400.0,494347300.0,494299740.0,494179600.0,494056030.0,493733980.0,493250020.0,493077600.0,493099740.0,493198080.0,493456860.0,493775680.0,494121950.0,494356200.0,494309860.0,493959680.0,493845820.0,494032580.0,494151400.0,494286700.0,493798100.0,492971140.0,492906880.0,493236900.0,493532450.0,493762300.0,494005100.0,494252220.0,494318880.0,494490100.0,494572500.0,494432930.0,494394900.0,494277120.0,494235550.0,494177820.0,493818900.0,493588500.0,493482430.0,493553920.0,493928770.0,494113400.0,493970800.0,493832930.0,494070880.0,494379000.0,494239900.0,494171840.0,494251500.0,494021300.0,493914720.0,493851870.0,493520300.0,493431600.0,493686140.0,494038700.0,494268800.0,494370370.0,494309500.0,494024860.0,494151230.0,494401570.0,494171200.0,493793730.0,493133920.0,492614080.0,492802460.0,493270820.0,493882400.0,494286850.0,494250100.0,494102460.0,493813730.0,493595680.0,493668400.0,494002240.0,494388450.0,494463970.0,494517000.0,494572350.0,494598660.0,494795420.0,494769200.0,494645220.0,494423000.0,494021500.0,493919520.0,493823970.0,493706300.0,493765120.0,493682800.0,493585920.0,493624830.0,493783000.0,493788220.0,493391580.0,493121440.0,493374400.0,493944770.0,494563170.0,495054600.0,495237200.0,495156960.0,495040640.0,494825400.0,494554050.0,494293380.0,493980200.0,493699140.0,493599870.0,493853470.0,494163680.0,494304000.0,494340130.0,494169760.0,493928450.0,493778720.0,493888030.0,494052770.0,494043000.0,494017060.0,493769150.0,493678530.0,493960770.0,494136500.0,494404030.0,494585300.0,494437060.0,494134720.0,493631680.0,493338560.0,493443360.0,493842780.0,494414660.0,494715800.0,494741630.0,494586270.0,494451000.0,494498180.0,494456670.0,494430620.0,494250940.0,493712930.0,493306270.0,493288100.0,493542370.0,493855400.0,494344500.0,494870850.0,494921100.0,494758370.0,494398700.0,493786850.0,493279040.0,492738560.0,492643680.0,493340480.0,494084640.0,494564130.0,494724030.0,494623070.0,494411840.0,493800160.0,493232200.0,493385440.0,493909340.0,494414560.0,494655650.0,494678560.0,494768640.0,494747070.0,494628320.0,494422900.0,494123940.0,493867070.0,493549250.0,493532260.0,493911420.0,494351230.0,494663870.0,494591070.0,494525200.0,494504500.0,494216670.0,493981630.0,493776860.0,493736500.0,493876740.0,493795420.0,493647870.0,493738560.0,494163780.0,494414100.0,494166660.0,493831680.0,493669660.0,493908260.0,494290940.0,494327780.0,493993760.0,493584740.0,493520830.0,493594600.0,493524300.0,493453100.0,493519200.0,493717020.0,493955620.0,494393760.0,494742660.0,494726370.0,494843170.0,494988860.0,494803870.0,494642020.0,494582400.0,494457540.0,494422850.0,494372930.0,494298940.0,494312930.0,494014050.0,493527040.0,493309250.0,493185380.0,493275200.0,493751580.0,494100130.0,494158080.0,494055840.0,493889600.0,493717540.0,493259520.0,492919460.0,492925060.0,493214430.0,494010370.0,494485980.0,494668540.0,495012500.0,494939900.0,494681340.0,494627420.0,494779740.0,494854700.0,494762270.0,494834020.0,494877220.0,494855200.0,494678180.0,494242880.0,493800320.0,493462270.0,493553900.0,493756540.0,493631040.0,493750940.0,494012100.0,494064770.0,494323140.0,494587500.0,494592300.0,494471650.0,494275940.0,494120540.0,493662940.0,493141340.0,493225570.0,493494900.0,493496060.0,493424770.0,493522050.0,493540900.0,493443900.0,493532400.0,493566180.0,493652130.0,493998750.0,494281400.0,494448100.0,494556380.0,494538000.0,494442370.0,494614180.0,495062620.0,495233020.0,495186980.0,495107100.0,494806300.0,494194500.0,493040640.0,492015300.0,492140260.0,493120580.0,494397470.0,495302660.0,495305630.0,494989020.0,494645220.0,494264320.0,493968000.0,493588160.0,493507260.0,493744030.0,493917980.0,494133220.0,494321860.0,494560640.0,494736670.0,494784600.0,494933860.0,494930180.0,494672130.0,494254560.0,494065730.0,494148030.0,493754340.0,493213400.0,493039200.0,493078200.0,493468350.0,493917300.0,494246750.0,494452350.0,494396100.0,494529440.0,494708800.0,494732960.0,494926340.0,495002600.0,494897760.0,494779400.0,494648800.0,494505820.0,494259420.0,494158370.0,494163840.0,493971460.0,493843070.0,493863600.0,493694800.0,493305920.0,493155600.0,493638050.0,494167360.0,494375400.0,494788160.0,494949800.0,494658660.0,494538600.0,494315740.0,493873820.0,493328700.0,492852480.0,492934850.0,493444900.0,493981060.0,494196350.0,494098700.0,493921470.0,493698180.0,493603680.0,493655400.0,493875650.0,494090780.0,494049400.0,493967600.0,493897300.0,494073600.0,494529300.0,494839170.0,495099970.0,495208200.0,495035260.0,494916540.0,494723620.0,494518200.0,494564960.0,494389020.0,493998620.0,493789570.0,493743870.0,493979800.0,494278400.0,494381000.0,494138370.0,493671550.0,493620450.0,493744830.0,493868640.0,494255840.0,494497150.0,494476450.0,494373150.0,494195550.0,493905900.0,493537920.0,493377700.0,493446500.0,493494430.0,493403800.0,493147420.0,493272320.0,494109540.0,494735360.0,494827500.0,494688860.0,494328060.0,494191600.0,494292480.0,494522020.0,494789340.0,494717060.0,494619420.0,494536160.0,494226300.0,493799040.0,493742500.0,494262560.0,494498660.0,494498430.0,494531330.0,494348770.0,494364060.0,494408130.0,494416220.0,494472100.0,494326050.0,494330750.0,494362700.0,494250020.0,494267740.0,494260800.0,494061250.0,493588600.0,493060300.0,492995970.0,493302980.0,493802560.0,494342370.0,494303650.0,493975360.0,493866140.0,493891700.0,494019970.0,493951520.0,493885630.0,493702270.0,493429340.0,493674980.0,493904200.0,494247070.0,494612480.0,494496500.0,494604160.0,494782050.0,494915460.0,494942720.0,494398720.0,493948320.0,493914240.0,493845980.0,493698780.0,493792030.0,494010340.0,494136420.0,494444060.0,494624350.0,494335100.0,494122460.0,494206240.0,494188600.0,494131840.0,494212930.0,494171040.0,494055700.0,494124580.0,494417280.0,494562270.0,494347300.0,494056670.0,493493500.0,492954980.0,493033440.0,493396930.0,493920160.0,494423520.0,494568480.0,494223330.0,493599680.0,493539800.0,493824640.0,494047260.0,494541500.0,494824480.0
494793100.0,494675360.0,494408800.0,494060000.0,493392500.0,493145020.0,493718460.0,494255550.0,494779040.0,495039520.0,494871100.0,494894340.0,494803140.0,494445760.0,494045630.0,493672500.0,493478240.0,493282660.0,493486340.0,494111940.0,494473300.0,494795330.0,495019300.0,495006800.0,495001820.0,494871680.0,494730430.0,494463700.0,494157120.0,494184600.0,494249400.0,494253800.0,494249500.0,494211740.0,494109760.0,493964670.0,494012060.0,493881280.0,493572930.0,493568200.0,493611330.0,493772900.0,494049820.0,494221470.0,494593730.0,494752540.0,494530980.0,494476160.0,494418600.0,494260160.0,494080160.0,494082400.0,494360600.0,494348540.0,494310720.0,494500220.0,494590180.0,494691070.0,494567140.0,494458660.0,494657280.0,494899070.0,495275800.0,495484160.0,495560930.0,495545020.0,495220930.0,495048500.0,494810980.0,494455780.0,494303000.0,494115400.0,493996960.0,493987680.0,494224930.0,494691330.0,494963940.0,495141820.0,495228400.0,495214240.0,495105100.0,494609440.0,493997150.0,493809470.0,494044860.0,494451200.0,494893570.0,495247800.0,495557820.0,495643800.0,495415200.0,495116160.0,494584640.0,494328900.0,494566620.0,494683000.0,494786140.0,494793150.0,494879000.0,495217400.0,495508770.0,495881440.0,495966400.0,495802660.0,495825400.0,495825060.0,495722660.0,495403780.0,495181630.0,495258780.0,495085440.0,494841860.0,494777200.0,494696540.0,494808600.0,495048700.0,495249950.0,495449470.0,495555940.0,495562180.0,495414140.0,495415260.0,495572060.0,495320960.0,494867400.0,494659400.0,494893760.0,495244320.0,495286880.0,495136260.0,494565950.0,493977570.0,494025800.0,494445660.0,495070240.0,495596260.0,495824200.0,495876900.0,495787040.0,495846300.0,495957540.0,495883870.0,495863460.0,495820700.0,495666300.0,495532740.0,495314300.0,495122100.0,495023740.0,495063970.0,495296060.0,495331300.0,495392450.0,495560450.0,495513020.0,495572350.0,495609000.0,495505180.0,495297470.0,495024540.0,494972900.0,494724320.0,494495940.0,494741800.0,495079400.0,495486460.0,495796030.0,495913300.0,495910430.0,495730430.0,495619100.0,495338240.0,494798100.0,494466270.0,494353600.0,494187900.0,493998980.0,494201060.0,494686000.0,495023300.0,495293660.0,495249500.0,494688600.0,494263260.0,494174750.0,494084830.0,494174180.0,494561700.0,495182820.0,495798430.0,496127170.0,496384830.0,496342800.0,495974880.0,495746000.0,495560000.0,495376540.0,495019420.0,494584000.0,494483170.0,494538180.0,494781600.0,495071940.0,495115800.0,495199600.0,495227870.0,495035170.0,494808420.0,494666000.0,494808900.0,494978800.0,495073000.0,495226430.0,494952540.0,494697060.0,494927170.0,495146020.0,495359600.0,495509340.0,495599100.0,495527870.0,495238300.0,495172300.0,494987330.0,494684000.0,494459400.0,494184700.0,494359230.0,494761000.0,495010560.0,495080640.0,494964740.0,495042850.0,494949150.0,494516860.0,494179940.0,494021920.0,494175600.0,494293020.0,494236380.0,494351550.0,494398560.0,494443040.0,494574820.0,494564200.0,494723780.0,494944580.0,495029800.0,495201800.0,495286080.0,495260320.0,495186460.0,495117220.0,494921570.0,494413340.0,494138300.0,494246700.0,494541280.0,494908220.0,495124060.0,495298430.0,495202200.0,494957150.0,494983040.0,494703840.0,494057000.0,493690140.0,493777440.0,494177920.0,494547400.0,494862850.0,495079420.0,495031600.0,494989340.0,494706020.0,494064060.0,493702460.0,493724220.0,494074000.0,494627900.0,494802530.0,494674720.0,494533630.0,494443900.0,494570050.0,494564600.0,494615940.0,494951170.0,495053630.0,495092600.0,495146200.0,495129570.0,495030140.0,494792800.0,494732380.0,494508000.0,494197920.0,494269600.0,494377400.0,494489000.0,494535500.0,494326900.0,493925950.0,493713500.0,493823420.0,493526300.0,493349250.0,493872960.0,494309500.0,494691170.0,494969200.0,494971680.0,495069600.0,494954100.0,494575700.0,494469000.0,494673570.0,494798400.0,494504400.0,493890750.0,493430700.0,493438850.0,493949440.0,494646750.0,495123000.0,495464960.0,495485020.0,494970530.0,494330880.0,493562180.0,492544100.0,491829340.0,492406620.0,493962880.0,495024320.0,495680100.0,496043780.0,495848770.0,495794270.0,495709000.0,495526750.0,495503800.0,495337470.0,495217380.0,495093730.0,494986900.0,494922660.0,494700500.0,494629340.0,494482050.0,494234880.0,494296670.0,494417800.0,494497600.0,494453220.0,494206800.0,493975740.0,493749250.0,493800540.0,494271000.0,494583780.0,494609100.0,494660300.0,494717250.0,494502180.0,494119900.0,494037020.0,494197120.0,494488060.0,494818000.0,494967000.0,495056500.0,494990800.0,494742370.0,494535100.0,494542940.0,494587740.0,494087700.0,493395680.0,493103580.0,493106600.0,493278880.0,493514020.0,493739420.0,493654720.0,493832350.0,494742700.0,495126200.0,495175550.0,495460350.0,495273200.0,495072100.0,494913950.0,494522880.0,494395800.0,494465800.0,494685660.0,494921760.0,494908640.0,494737100.0,494409020.0,493975740.0,493640480.0,493772960.0,494295520.0,494431230.0,494221060.0,494281950.0,494398880.0,494421820.0,494313150.0,494056700.0,494131900.0,494333380.0,494628220.0,495045280.0,495089660.0,495125400.0,495173570.0,495189150.0,495266000.0,494940400.0,494542140.0,494181500.0,493653540.0,493406340.0,493652260.0,494132960.0,494522400.0,494747780.0,494700960.0,494414270.0,494217400.0,494204580.0,494344930.0,494581730.0,494760100.0,494904600.0,495160260.0,495295040.0,495281730.0,495325860.0,495295140.0,495283740.0,495213500.0,495023970.0,494804130.0,494434370.0,494292740.0,494297380.0,494214430.0,494275840.0,494069150.0,493619650.0,493473800.0,493541400.0,493727500.0,494164380.0,494751420.0,495177600.0,495309440.0,495317300.0,495232220.0,495061280.0,494999700.0,495019550.0,495059300.0,494985570.0,494830370.0,494715230.0,494309380.0,494011800.0,494041700.0,493975040.0,494169060.0,494497300.0,494636540.0,494655500.0,494560400.0,494572670.0,494513800.0,494452260.0,494515620.0,494551650.0,494762100.0,494798500.0,494446270.0,494154400.0,494169570.0,494412400.0,494502940.0,494447300.0,494537300.0,494592130.0,494280600.0,493717860.0,493421860.0,493529700.0,493731940.0,494238940.0,495136540.0,495613470.0,495590240.0,495477570.0,495194900.0,494903330.0,494600770.0,494226700.0,493907970.0,493907400.0,494240160.0,494506800.0,494983870.0,495378430.0,495283940.0,495158100.0,494898100.0,494754560.0,494689380.0,494511870.0,494626000.0,494546500.0,494434020.0,494583780.0,494595520.0,494648740.0,494545950.0,494381380.0,494348930.0,494360130.0,494732600.0,494925500.0,494854000.0,494930980.0,494765820.0,494580930.0,494485100.0,494306100.0,494087740.0,493809600.0,493875460.0,493859900.0,493314400.0,492939550.0,492936260.0,493506100.0,494603230.0,495339420.0,495766600.0,495835600.0,495202620.0,494677600.0,494585200.0,494697440.0,494849660.0,494902530.0,494962720.0,494791780.0,494598530.0,494545950.0,494410500.0,494397760.0,494432480.0,494440540.0,494180160.0,493581730.0,493498620.0,494103600.0,494746020.0,495086720.0,495075900.0,495013150.0,495030600.0,494822340.0,494741660.0,494902180.0,494910750.0,494997440.0,495065020.0,495110140.0,495138530.0,495002430.0,495055420.0,494962900.0,494690720.0,494501980.0,494208540.0,494025060.0,493841250.0,493661020.0,493654880.0,493781000.0,494039550.0,494067140.0,493963940.0,494003900.0,494042880.0,494061220.0,494066720.0,494139800.0,494334100.0,494707170.0,495119330.0,495269980.0,495384860.0,495533950.0,495466400.0,495336320.0,495231580.0,495058140.0,494864300.0,494686100.0,494642180.0,494653700.0,494506100.0,494423460.0,494524220.0,494699000.0,494796860.0,494600900.0,494002500.0,492793900.0,491889200.0,492527840.0,493906080.0,495065400.0,495684540.0,495579360.0,495360900.0,495042780.0,494444030.0,493820220.0,493280000.0,493273000.0,493664130.0,494147040.0,494685700.0,495057800.0,495418400.0,495591420.0,495604380.0,495613340.0,495406560.0,495262800.0,495010560.0,494672860.0,494607330.0,494364580.0,494039700.0,494005200.0,494142300.0,494423200.0,494660600.0,494791070.0,494943680.0,494995700.0,495006180.0,495023140.0,494919780.0,494832350.0,494847520.0,494846100.0,494632260.0,494390750.0,494385760.0,494262370.0,494152260.0,494276640.0,494254700.0,494142270.0,493986460.0,493726430.0,493332400.0,492886600.0,493108500.0,493891870.0,494504740.0,494866660.0,494819970.0,494691000.0,494811840.0,494847650.0,495061540.0,495259650.0,495245000.0,495416030.0,495265900.0,495056300.0,495148930.0,495086080.0,495129150.0,495156740.0,495082200.0,494970100.0,494770700.0,494749540.0,494553060.0,494355780.0,494368670.0,494115330.0,493814600.0,493789700.0,494103330.0,494381600.0,494303500.0,494252450.0,494227800.0,493984130.0,493522980.0,493024200.0,492986560.0,493509300.0,494232000.0,494900130.0,495084640.0,495011650.0,495132600.0,494929120.0,494575580.0,494269500.0,493895520.0,493967740.0,494297600.0,494791330.0,495183040.0,495254270.0,495446750.0,495379170.0,495263420.0,495257500.0,495081800.0,495025660.0,494895420.0,494862660.0,494766660.0,494363680.0,494127070.0,493817860.0,493547300.0,493532580.0,493549820.0,493721380.0,494013440.0,494495200.0,494985860.0,495075780.0,495033700.0,495021020.0,494913820.0,494834530.0,494860380.0,494982720.0,495109900.0,495089300.0,494963600.0,494760700.0,494718430.0,494986660.0,495031870.0,494975100.0,495016860.0,494782940.0,494585300.0,494475420.0,494450880.0,494499840.0,494382560.0,494487520.0,494496060.0,494374980.0,494519680.0,494570180.0,494684800.0,494819600.0,494861280.0,494895740.0,494828100.0,494888300.0,494847420.0,494713300.0,494690900.0,494573950.0,494497700.0,494404220.0,494302880.0,494308600.0,494206500.0,494097600.0,494204200.0,494396380.0,494467520.0,494589200.0,494775600.0,494830620.0,494894050.0,495002050.0,495055650.0,494908740.0,494795460.0,494906660.0,494798500.0,494688800.0,494743230.0,494689540.0,494707420.0,494697000.0,494591070.0,494335200.0,494048350.0,494169280.0,494368160.0,494544300.0,494701760.0,494544480.0,494402370.0,494441760.0,494658050.0,494775600.0,494673300.0,494697020.0,494467500.0,494178720.0,494223260.0,494322430.0,494565300.0,494768000.0,494863330.0,494749600.0,494456960.0,494470000.0,494359260.0,494155940.0,494196060.0,494269060.0,494538460.0,494765730.0,494941100.0,495084930.0,494930000.0,494942620.0,494945000.0,494723300.0,494696830.0,494610600.0,494481000.0,494538240.0,494589280.0,494623100.0,494621660.0,494666300.0,494782940.0,494812100.0,494880480.0,494899940.0,494785900.0,494760030.0,494756540.0,494720540.0,494613950.0,494542400.0,494643300.0,494609630.0,494585470.0,494660580.0,494617630.0,494652830.0,494673600.0,494685200.0,494668220.0,494555700.0,494621200.0,494579500.0,494497950.0,494518300.0,494394850.0,494415740.0,494430980.0,494430080.0,494554340.0,494422700.0,494288160.0,494256480.0,494220670.0,494442900.0,494661060.0,494676800.0,494681280.0,494712640.0,494797600.0,494808130.0,494786560.0,494867740.0,494835040.0,494803330.0,494789920.0,494673020.0,494665660.0,494678500.0,494693200.0,494676930.0,494654300.0,494761540.0,494711900.0,494680540.0,494699970.0,494565820.0,494574700.0,494616320.0,494686300.0,494771840.0,494632100.0,494603230.0,494692860.0,494595520.0,494499140.0,494521820.0,494536670.0,494555680.0,494567580.0,494604380.0,494604030.0,494502980.0,494593800.0,494661000.0,494619400.0,494705570.0,494655500.0,494636160.0,494711970.0,494725980.0,494719600.0,494629800.0,494677400.0,494690400.0,494604770.0,494670140.0,494645300.0,494610940.0,494644100.0,494682800.0,494718620.0,494597400.0,494594620.0,494675600.0,494624740.0,494663330.0,494664800.0,494627900.0,494695780.0,494721570.0,494718560.0,494662270.0,494638560.0,494683620.0,494630460.0,494646370.0,494674240.0,494618800.0,494626240.0,494651420.0,494729950.0,494674100.0,494559840.0,494679800.0,494681800.0,494623800.0,494671140.0,494651400.0,494710080.0,494754050.0,494769440.0,494793440.0,494710200.0,494748540.0,494770560.0,494708580.0,494785250.0,494774560.0,494705900.0,494727520.0,494771000.0,494757950.0,494665020.0,494727230.0,494788200.0,494707170.0,494738020.0,494764540.0,494784800.0,494841660.0,494846180.0,494853380.0,494780500.0,494772830.0,494821470.0,494772960.0,494831230.0,494859970.0,494808060.0,494831070.0,494873280.0,494906140.0,494786430.0,494763520.0,494915700.0,494839330.0,494808770.0,494889800.0,494872700.0,494918560.0,494924100.0,494956030.0,494944700.0,494825700.0,494911600.0,494914530.0,494864800.0,494938700.0,494869250.0,494885380.0,494919940.0,494906300.0,495004480.0,494936860.0,494895360.0,495006240.0,494970180.0,494959520.0,495041280.0,495009440.0,494986460.0,495035300.0,495065120.0,495001120.0,494903000.0,494999100.0,495031550.0,494959520.0,495009000.0,494980500.0,494995500.0,495047230.0,495085600.0,495104960.0,494965920.0,495012800.0,495065760.0,494983460.0,495057900.0,495042400.0,495011500.0,495060100.0,495078820.0,495110000.0,494999520.0,494952100.0,495046460.0,494980800.0,494948740.0,495002700.0,494971800.0,494984930.0,495027300.0,495065250.0,495014530.0,494925280.0,494987620.0,494945180.0,494926820.0,495005700.0,494924860.0,494950140.0,495005250.0,494996960.0,494934370.0,494834180.0,494950530.0,494914500.0,494835260.0,494932400.0,494878750.0,494898270.0,494948600.0,494966300.0,494931800.0,494807230.0,494880300.0,494852000.0,494809630.0,494880600.0,494795140.0,494831550.0,494856300.0,494844300.0,494885380.0,494770370.0,494786100.0,494833440.0,494734940.0,494751070.0,494784480.0,494750940.0,494763680.0,494809380.0,494827620.0,494738300.0,494679900.0,494760500.0,494733340.0,494705600.0,494738720.0,494686720.0,494716130.0,494732130.0,494724640.0,494672300.0,494597200.0,494687360.0,494616640.0,494575680.0,494668450.0,494592350.0,494620220.0,494676000.0,494700600.0,494642430.0,494513730.0,494630370.0,494614750.0,494548200.0,494619700.0,494559680.0,494584260.0,494588670.0,494588300.0,494612480.0,494497000.0,494546660.0,494562700.0,494485000.0,494548670.0,494531780.0,494511400.0,494539600.0,494549660.0,494593120.0,494526940.0,494443600.0,494511580.0,494517280.0,494453470.0,494496030.0,494492200.0,494455330.0,494499300.0,494534750.0,494517220.0,494423680.0,494423520.0,494476740.0,494428100.0,494456200.0,494466080.0,494442780.0,494491520.0,494489820.0,494441300.0,494359550.0,494387870.0,494428300.0,494342940.0,494385380.0,494410720.0,494372200.0,494401120.0,494422600.0,494495260.0,494414620.0,494307780.0,494433280.0,494414200.0,494355420.0,494415000.0,494380480.0,494399780.0,494432480.0,494432640.0,494406050.0,494328900.0,494405220.0,494398200.0,494342980.0,494421700.0,494364960.0,494355780.0,494410750.0,494418560.0,494383500.0,494257120.0,494323100.0
494359800.0,494281340.0,494347700.0,494341280.0,494341380.0,494370200.0,494359840.0,494373630.0,494306600.0,494324200.0,494346240.0,494287070.0,494335800.0,494320220.0,494282460.0,494340500.0,494400420.0,494404000.0,494246660.0,494219360.0,494344740.0,494264540.0,494251970.0,494324320.0,494280670.0,494292300.0,494303000.0,494341600.0,494307940.0,494193060.0,494275700.0,494267400.0,494221950.0,494285470.0,494212740.0,494234460.0,494312860.0,494316770.0,494256320.0,494162270.0,494269340.0,494264000.0,494196220.0,494289340.0,494248740.0,494243650.0,494279300.0,494297060.0,494286850.0,494153120.0,494212740.0,494256480.0,494192350.0,494249440.0,494210750.0,494209600.0,494273200.0,494277920.0,494236540.0,494142900.0,494213630.0,494231140.0,494148380.0,494220350.0,494216580.0,494185060.0,494190750.0,494179000.0,494260400.0,494258500.0,494154460.0,494157630.0,494217020.0,494168830.0,494145280.0,494202600.0,494184580.0,494199650.0,494221440.0,494221570.0,494172200.0,494094300.0,494186560.0,494174270.0,494139230.0,494186180.0,494106300.0,494153100.0,494219520.0,494221000.0,494162560.0,494088420.0,494204700.0,494154050.0,494101340.0,494183520.0,494129800.0,494162660.0,494184450.0,494198850.0,494167780.0,494065570.0,494167520.0,494147260.0,494115900.0,494187620.0,494104320.0,494133200.0,494175970.0,494187520.0,494179740.0,494070140.0,494127800.0,494133120.0,494061470.0,494134560.0,494146460.0,494128200.0,494139420.0,494174700.0,494186340.0,494085020.0,494093020.0,494162100.0,494118430.0,494125800.0,494116320.0,494087900.0,494150180.0,494162460.0,494158370.0,494101800.0,494052500.0,494107780.0,494044160.0,494054460.0,494123520.0,494053020.0,494077060.0,494121180.0,494137400.0,494070530.0,493998340.0,494120740.0,494095780.0,494051070.0,494094430.0,494045400.0,494105340.0,494127330.0,494140540.0,494127520.0,494002340.0,494072130.0,494069980.0,494011330.0,494089300.0,494038940.0,494026780.0,494079600.0,494113820.0,494124540.0,494023230.0,494045700.0,494094180.0,494021950.0,494035870.0,494048700.0,494039740.0,494063460.0,494073500.0,494097660.0,494024700.0,493981600.0,494050780.0,494012770.0,494030400.0,494066660.0,493997820.0,494036400.0,494064930.0,494080480.0,494083460.0,493986240.0,494018270.0,494044700.0,493973820.0,494003650.0,494022140.0,493994850.0,494012800.0,494064740.0,494109900.0,494004100.0,493904930.0,494005380.0,493977440.0,493912670.0,493979140.0,493946000.0,493970720.0,494031740.0,494068030.0,494057700.0,493947780.0,494009630.0,493996130.0,493941280.0,494046980.0,493991700.0,493984160.0,494046500.0,494038340.0,494003700.0,493917980.0,493996640.0,494026270.0,493951420.0,493995900.0,493983650.0,493977200.0,494009250.0,494031140.0,494030560.0,493940500.0,493942750.0,493949630.0,493899040.0,493954600.0,493935680.0,493877020.0,493897860.0,493908380.0,493884400.0,493732060.0,493702900.0,493829400.0,493742400.0,493726140.0,493852830.0,493873820.0,493897100.0,493907550.0,493967650.0,493958270.0,493855700.0,493900220.0,493818940.0,493760500.0,493851200.0,493761630.0,493717380.0,493685000.0,493593860.0,493513060.0,493451700.0,493680770.0,493824260.0,493856960.0,494080060.0,494103500.0,493994100.0,493846430.0,493739070.0,493730600.0,493575200.0,493515040.0,493285440.0,492667700.0,492207870.0,492088030.0,492357920.0,492858300.0,493467460.0,493987840.0,494134300.0,494291520.0,494355780.0,494234850.0,494168100.0,493861760.0,493438050.0,492934140.0,492582340.0,492746340.0,492904200.0,493196930.0,493743040.0,494166430.0,494651740.0,494972450.0,495037440.0,495011260.0,494769660.0,494553730.0,494253860.0,493838850.0,493529400.0,493214200.0,493353000.0,493653380.0,493590300.0,493746500.0,493944640.0,494050140.0,494259870.0,494367680.0,494496200.0,494545120.0,494449570.0,494377600.0,494303140.0,494200800.0,494083700.0,494003620.0,493964700.0,493923740.0,493916580.0,493992420.0,493980480.0,493979780.0,494081760.0,494070460.0,494089820.0,494094620.0,494066300.0,494048060.0,493991740.0,494103330.0,494068350.0,493926300.0,493951970.0,493859500.0,493788000.0,493816260.0,493858340.0,493834430.0,493715330.0,493750240.0,493738000.0,493710750.0,493847040.0,493899330.0,493993340.0,494086180.0,494072500.0,494039070.0,493928960.0,493978140.0,494028500.0,493913630.0,493914430.0,493825540.0,493679170.0,493673800.0,493712930.0,493763840.0,493630880.0,493498600.0,493399420.0,493091780.0,493065860.0,493231140.0,493181570.0,493312670.0,493637540.0,493778100.0,493458850.0,492894850.0,492775500.0,492990880.0,492986460.0,492729860.0,492753400.0,493315970.0,493794370.0,494069570.0,494276800.0,494267970.0,494353860.0,494272000.0,493795900.0,493422900.0,493221730.0,493178080.0,493249860.0,493296200.0,493326080.0,493451040.0,493652000.0,493756450.0,494106240.0,494400480.0,494247260.0,494324480.0,494430530.0,494267870.0,494033020.0,493719170.0,493604400.0,493461600.0,493140100.0,492813400.0,492709200.0,493037730.0,493203600.0,493185200.0,493157150.0,493098140.0,493552860.0,494083870.0,494391970.0,494662460.0,494554400.0,494399500.0,494272030.0,494074460.0,494105100.0,494116130.0,494098460.0,494200000.0,494322600.0,494407550.0,494477250.0,494525120.0,494397000.0,494283460.0,494217100.0,494043600.0,493749980.0,493448640.0,493382800.0,493208450.0,492957950.0,492857820.0,492780100.0,492933600.0,493061000.0,493159900.0,493269660.0,493086560.0,492885000.0,492832400.0,493312800.0,494103550.0,494574980.0,494911330.0,494973440.0,494729020.0,493982430.0,492995870.0,492520500.0,491915360.0,491528320.0,492077900.0,492780100.0,493465730.0,494041120.0,494236800.0,494194140.0,493995600.0,494123230.0,494472700.0,494535140.0,494540200.0,494283040.0,493810020.0,493602880.0,493326050.0,492774340.0,492030050.0,491759400.0,492229500.0,492246080.0,491863360.0,491944030.0,492520200.0,493175650.0,493427140.0,493581660.0,493753250.0,493977600.0,494242530.0,494215700.0,494361120.0,494499200.0,494376420.0,494280220.0,494074100.0,494021600.0,493965300.0,493830460.0,493692060.0,493128160.0,492636500.0,492459840.0,492554240.0,493202430.0,493905570.0,494052830.0,493566180.0,493302800.0,493618750.0,493830270.0,494098200.0,494304700.0,494262050.0,494362370.0,494422000.0,494440670.0,494313570.0,494012640.0,493996500.0,494008670.0,493718180.0,493251330.0,492749440.0,492369800.0,492292580.0,492651170.0,492994900.0,492788200.0,492462900.0,492467800.0,492810500.0,493355650.0,493488420.0,493445470.0,493735260.0,493981700.0,494250880.0,494330000.0,494225180.0,494410050.0,494469730.0,494470940.0,494520320.0,494453380.0,494458000.0,494308400.0,494114270.0,493886000.0,493377120.0,492966660.0,492754780.0,492722200.0,493117500.0,493556930.0,493569820.0,493420540.0,493296800.0,493288770.0,493192580.0,492723460.0,492374050.0,492160420.0,492354050.0,493266940.0,493976740.0,494413920.0,494627940.0,494260300.0,493739870.0,493504500.0,493707680.0,493826720.0,493671550.0,493772670.0,493988480.0,494138340.0,494321150.0,494519200.0,494512900.0,494350500.0,494391740.0,494393860.0,494325400.0,494275840.0,494024320.0,493747940.0,493466900.0,493228400.0,492985300.0,492676670.0,492791330.0,493032900.0,493107140.0,493402270.0,493646300.0,493722530.0,493730270.0,493566180.0,493372830.0,493031040.0,492699040.0,492555650.0,492401280.0,492612670.0,492779000.0,492346050.0,492193200.0,492683260.0,493545700.0,494034080.0,493841020.0,493897120.0,493907650.0,493595970.0,493195870.0,492760740.0,493003300.0,493493300.0,493870980.0,494250560.0,494394400.0,494690880.0,494842940.0,494778300.0,494836380.0,494752030.0,494539170.0,494131070.0,493594560.0,493162100.0,492972670.0,492838340.0,492367550.0,492064540.0,492141060.0,492440740.0,493326880.0,494282900.0,494754300.0,494981730.0,494893760.0,494710980.0,494592930.0,494250500.0,493983040.0,493798300.0,493491040.0,493352800.0,493402560.0,493544420.0,493563780.0,493532130.0,493687000.0,493657540.0,493531400.0,493471460.0,493353900.0,493312600.0,493083840.0,492393570.0,491418240.0,490990300.0,491729860.0,492881100.0,493779420.0,494348770.0,494390000.0,494072740.0,493785540.0,493569570.0,493479420.0,493648830.0,493926140.0,493884000.0,493170560.0,492417660.0,492572220.0,493296740.0,493616640.0,493242020.0,492870000.0,492866980.0,492983360.0,493752900.0,494715100.0,494855550.0,494841470.0,494649820.0,494222400.0,494094660.0,493908500.0,493754270.0,493552320.0,493440580.0,493644450.0,493555420.0,493536400.0,493786370.0,493941760.0,493981600.0,493973630.0,494110620.0,494092860.0,493939400.0,493898720.0,493748300.0,493533060.0,493326370.0,493126100.0,493048000.0,493195680.0,493428670.0,493506080.0,493686300.0,493997500.0,494058940.0,494060640.0,493965700.0,493588350.0,493482370.0,493705800.0,493918940.0,493997860.0,493798400.0,493523230.0,493012830.0,492283800.0,492225100.0,492753950.0,493078600.0,493287650.0,493586800.0,493800640.0,493998340.0,494117280.0,493828160.0,493225630.0,492773570.0,492817630.0,493154400.0,493446750.0,493538600.0,493302880.0,493341760.0,493897660.0,494195200.0,494158140.0,494080670.0,493954850.0,493847940.0,493826500.0,493849630.0,493850270.0,493889800.0,493954750.0,494046340.0,494182900.0,494392130.0,494505100.0,494262800.0,493994850.0,493893660.0,493820260.0,493600800.0,493415900.0,493395700.0,492989540.0,492720960.0,492792640.0,492621760.0,492741250.0,492995140.0,493145920.0,493375800.0,493541060.0,493845060.0,493930300.0,494077630.0,494715520.0,495005100.0,495138430.0,495301340.0,495065630.0,494823940.0,494464640.0,494016900.0,493781980.0,493400860.0,493187000.0,493078850.0,492617340.0,492404740.0,492704320.0,493274560.0,493810140.0,494073150.0,494159000.0,494095330.0,493880400.0,493157760.0,492209570.0,492030750.0,492748450.0,493846180.0,494510460.0,494608930.0,494456420.0,494132860.0,494056580.0,494065660.0,494046880.0,494240580.0,494423900.0,494726660.0,495028830.0,494935420.0,494886820.0,494991940.0,494771840.0,494490530.0,494288320.0,493969860.0,493838270.0,493913280.0,493990400.0,493888420.0,493682460.0,493618620.0,493482560.0,493495740.0,493676400.0,493611940.0,493599230.0,493603940.0,493463680.0,493379500.0,493366750.0,493515800.0,493868000.0,494259230.0,494324000.0,494305820.0,494541280.0,494643040.0,494500320.0,493720830.0,492993020.0,493521730.0,494225900.0,494659460.0,495011700.0,494862340.0,494740700.0,494596540.0,494074750.0,493376300.0,492799500.0,492887040.0,493357100.0,493885250.0,494451200.0,494338720.0,493646800.0,493163550.0,493074340.0,493374800.0,493925820.0,494577200.0,495008030.0,494918900.0,494671040.0,494463300.0,494291620.0,494335200.0,494401470.0,494399970.0,494477900.0,494528160.0,494502900.0,494487260.0,494520580.0,494295040.0,493697600.0,493269900.0,493179680.0,493238000.0,493398530.0,493775870.0,494098940.0,493794240.0,493384030.0,493438240.0,493599500.0,493690000.0,493875300.0,494126500.0,494260500.0,494567040.0,494892130.0,494669470.0,494461020.0,494492640.0,494185470.0,493635360.0,493177570.0,493085120.0,493321500.0,493515400.0,493782430.0,494253280.0,494512260.0,494364200.0,494284670.0,494434750.0,494521540.0,494615000.0,494699600.0,494568300.0,494332800.0,494033440.0,493424030.0,492732300.0,492472060.0,492727970.0,493354240.0,494185800.0,494935740.0,494947780.0,494495400.0,494429470.0,494350660.0,494172060.0,494007140.0,493649400.0,493536500.0,493720740.0,494131800.0,494521800.0,494526080.0,494501380.0,494275260.0,493846980.0,493831970.0,493954800.0,493886850.0,493855780.0,493890340.0,493829900.0,493817660.0,494107460.0,494404100.0,494415870.0,494259070.0,493994560.0,493742500.0,493588030.0,493395600.0,493311840.0,493572860.0,493932900.0,494255780.0,494583500.0,494790940.0,494775360.0,494499170.0,494207520.0,493904900.0,493399420.0,492777820.0,492602200.0,493279900.0,493782300.0,493963040.0,494238340.0,494104350.0,494162180.0,494458430.0,494562000.0,494520200.0,494302530.0,494433900.0,494570180.0,494607420.0,494770750.0,494703000.0,494715780.0,494711900.0,494658080.0,494634180.0,494438080.0,494354200.0,494257020.0,494069980.0,493968320.0,493775970.0,493403260.0,493136500.0,493242270.0,493384130.0,493259870.0,492955230.0,492541760.0,492375500.0,492789020.0,493526500.0,494412260.0,495236030.0,495535940.0,495414140.0,495008420.0,494317820.0,493756700.0,493630430.0,493671140.0,493363680.0,492933440.0,492933660.0,493340900.0,494074140.0,494702620.0,494741570.0,494661920.0,494695140.0,494598270.0,494657440.0,494722880.0,494550200.0,494520740.0,494553470.0,494546940.0,494395200.0,494082500.0,494034880.0,494034430.0,494078880.0,494231000.0,494187260.0,494091400.0,493928930.0,494001000.0,494269540.0,494359420.0,494412200.0,493915260.0,493341500.0,493523800.0,493770600.0,494059260.0,494373630.0,494318880.0,494181820.0,494040960.0,494034430.0,493923520.0,493509730.0,493331940.0,493384640.0,493697300.0,494352700.0,494881060.0,494975040.0,494810370.0,494672060.0,494271400.0,493455000.0,492437100.0,491769180.0,492225000.0,493212450.0,493915680.0,494264740.0,494221950.0,494214240.0,494264300.0,494342240.0,494676350.0,494781020.0,494768930.0,494875800.0,494831070.0,494793660.0,494630270.0,494442800.0,494356100.0,493917000.0,493598460.0,493774820.0,493783420.0,493472000.0,493264420.0,493228670.0,493213150.0,493528420.0,494030620.0,494001470.0,493912220.0,494115500.0,493954750.0,493570500.0,493548600.0,494022180.0,494534240.0,494741100.0,494904160.0,494913300.0,494874200.0,494922600.0,494800500.0,494733700.0,494576480.0,494217340.0,493938560.0,493846180.0,494008860.0,493886820.0,493426530.0,493259840.0,493535870.0,493887260.0,493923700.0,493956770.0,493822300.0,493522080.0,493782460.0,494223420.0,494499300.0,494661600.0,494652380.0,494674180.0,494656000.0,494561820.0,494402900.0,494185020.0,494173540.0,494325700.0,494365250.0,494392670.0,494438200.0,494351600.0,494184100.0,493954700.0,493934600.0,494111100.0,493949220.0,493390880.0,492658600.0,492349020.0,492939500.0,493847070.0,494586100.0,494987420.0,494845700.0,494502240.0,494005200.0,493365120.0,493154780.0,493200300.0,493168060.0,493050780.0,492976960.0,493479600.0,494162200.0,494532500.0,494781150.0,494728400.0,494827970.0,495136860.0,495005200.0,494973380.0,495052260.0,494896130.0,494819040.0,494644480.0,494522430.0,494533500.0,494549760.0,494530750.0,494216800.0,494014900.0,494012640.0,494156600.0,494559260.0,494697060.0,494442240.0,493993300.0,493597500.0,493375550.0,493401150.0,493798620.0,494262430.0,494640200.0,494681150.0,494507330.0,494498000.0,494337950.0,494125980.0,493876000.0,493546340.0,493477860.0,493396100.0,493272220.0,493370600.0,493713660.0,494171940.0,494434940.0,494673540.0
494819550.0,494579650.0,494301150.0,493962780.0,493712830.0,494005660.0,494374460.0,494672450.0,494931520.0,494876740.0,494717660.0,494289380.0,493915170.0,494133500.0,494404600.0,494539230.0,494515600.0,494520860.0,494672580.0,494497700.0,494165570.0,493744640.0,493509470.0,493579040.0,493442560.0,493560740.0,493909860.0,494258300.0,494643650.0,494712500.0,494889860.0,495012600.0,494692450.0,494247900.0,493726100.0,493408860.0,493438340.0,493782900.0,494184450.0,494253470.0,494382000.0,494551580.0,494464740.0,494448540.0,494308130.0,493856500.0,493435200.0,493112930.0,493271650.0,494075100.0,494861760.0,495250850.0,495293600.0,495211330.0,495083070.0,494926880.0,494823360.0,494657900.0,494537380.0,494341980.0,493820260.0,493470200.0,493610700.0,493763400.0,493885630.0,494261470.0,494458720.0,494443840.0,494512030.0,494553540.0,494568300.0,494492100.0,494474560.0,494433570.0,494286300.0,494155970.0,493683040.0,493347460.0,493705440.0,494354880.0,494783500.0,494782300.0,494574940.0,493941540.0,493094620.0,492619420.0,492408640.0,492682700.0,493080740.0,493181060.0,493541250.0,493967420.0,494319800.0,494891680.0,495162720.0,495074270.0,495099600.0,495072670.0,494981100.0,494981730.0,494933200.0,494780670.0,494615870.0,494496260.0,494247520.0,494123000.0,494314800.0,494501760.0,494662140.0,494582140.0,494411260.0,494251500.0,494018700.0,494112740.0,493992540.0,493718180.0,493724220.0,493536700.0,493309400.0,493210340.0,493549600.0,494101630.0,494195360.0,494002560.0,493341120.0,492738020.0,492970140.0,493732300.0,494566820.0,495058600.0,495465440.0,495560860.0,495009700.0,494621000.0,494279420.0,493808800.0,493796320.0,493980770.0,494095520.0,494222180.0,494023070.0,493657900.0,493683620.0,494040700.0,494548930.0,494948900.0,495173340.0,495320900.0,495061570.0,494539420.0,494049800.0,493594340.0,493291200.0,493346370.0,493748160.0,493918980.0,493926370.0,494076500.0,494227420.0,494500200.0,494623740.0,494502100.0,494205700.0,493799400.0,493759840.0,493979260.0,494452640.0,494975300.0,494860670.0,494419900.0,494053950.0,493896930.0,494013100.0,494044130.0,494088000.0,494241120.0,494204400.0,494127230.0,494080000.0,494098080.0,494350720.0,494522200.0,494590500.0,494574500.0,494460130.0,494596060.0,494630940.0,494536320.0,494582000.0,494495420.0,494421500.0,494398560.0,494383900.0,494310080.0,494194620.0,494236830.0,493791700.0,492857300.0,492346700.0,492595620.0,493463650.0,494483360.0,495309000.0,495523230.0,495226600.0,495095800.0,494803460.0,494251840.0,493859200.0,493506940.0,493053440.0,492284830.0,491781120.0,492159330.0,492664960.0,493279970.0,494358940.0,495015900.0,495126880.0,495345250.0,495447970.0,495254140.0,494962800.0,494584860.0,493972030.0,493495360.0,493865600.0,494408640.0,494628100.0,494862800.0,494863460.0,494896320.0,494940830.0,494846850.0,494820540.0,494697700.0,494749100.0,494698750.0,494550660.0,494619620.0,494469570.0,494382600.0,494313440.0,494071550.0,493808930.0,493591200.0,493617600.0,493343360.0,492931680.0,492575000.0,492005280.0,492316220.0,493599780.0,494806400.0,495400030.0,495345120.0,495170370.0,494738750.0,494280770.0,494385630.0,494444960.0,494472960.0,494650850.0,494578050.0,494456740.0,494281700.0,494100200.0,494016400.0,493717800.0,493585250.0,493991260.0,494452000.0,494710460.0,494930940.0,494943680.0,494676540.0,494494000.0,494415230.0,494178800.0,493781120.0,493350720.0,493213800.0,493601950.0,494001300.0,494159170.0,494335600.0,494505950.0,494790820.0,494911900.0,494730200.0,494743840.0,494699940.0,494482080.0,494325540.0,494090270.0,493785900.0,493194620.0,492458140.0,492340670.0,492869920.0,493723780.0,494499900.0,494631580.0,494467460.0,494481100.0,494522140.0,494523070.0,494585800.0,494841280.0,494950340.0,494765250.0,494665280.0,494558940.0,494299700.0,493906020.0,493660540.0,493733280.0,493765900.0,494099230.0,494681020.0,494746880.0,494672300.0,494735400.0,494702850.0,494678660.0,494565900.0,494358080.0,494185500.0,493992300.0,493605250.0,493203460.0,493292260.0,493695680.0,494005660.0,494156960.0,494304100.0,494548000.0,494591740.0,494506460.0,494398750.0,494063200.0,493771780.0,493769630.0,493855140.0,493828930.0,493917900.0,494273950.0,494430880.0,494232100.0,493899620.0,493575580.0,493420450.0,493416200.0,493795870.0,494344860.0,494493000.0,494734100.0,494992320.0,494877000.0,494879070.0,494869020.0,494791520.0,494854880.0,494847500.0,494832580.0,494839650.0,494843400.0,494831260.0,494692770.0,494586370.0,494506340.0,494263070.0,493914460.0,493592320.0,493598750.0,493943500.0,494272670.0,494520540.0,494510850.0,494395300.0,494355600.0,494050400.0,493704130.0,493269630.0,492570720.0,492217200.0,492577630.0,493568770.0,494619420.0,495355140.0,495682500.0,495440600.0,495247360.0,495184580.0,494755260.0,494257630.0,493851900.0,493612000.0,493709150.0,493985730.0,494298620.0,494510620.0,494572320.0,494547230.0,494522300.0,494588960.0,494717400.0,494864100.0,495010620.0,494932160.0,494568220.0,494391260.0,494385380.0,494306180.0,494250900.0,494020600.0,493797340.0,493851520.0,493987940.0,494055840.0,494042750.0,494140860.0,494176220.0,494166100.0,494320450.0,494204500.0,494014180.0,494032220.0,494073280.0,494296220.0,494368640.0,494324740.0,494525920.0,494407580.0,493926370.0,493405700.0,493049380.0,493316480.0,493948540.0,494362370.0,494229100.0,493841470.0,493954500.0,494355170.0,494589950.0,494788380.0,494935420.0,494884900.0,494745860.0,494719700.0,494676540.0,494624160.0,494687520.0,494505860.0,494096130.0,493831500.0,493724100.0,493912600.0,494269250.0,494463400.0,494487800.0,494351070.0,494352300.0,494472830.0,494474370.0,494494240.0,494461400.0,494426560.0,494383580.0,494361540.0,494445800.0,494234940.0,493951680.0,493993820.0,494102000.0,494362700.0,494693800.0,494519400.0,493946700.0,493590560.0,493591100.0,493665600.0,493893220.0,494212770.0,494262820.0,494366980.0,494454700.0,494433340.0,494624600.0,494646370.0,494675360.0,494670940.0,494381000.0,494099100.0,493439900.0,493194300.0,493920450.0,494575580.0,495056320.0,495182940.0,494802370.0,494293820.0,493796480.0,493456770.0,492991260.0,492780740.0,493290270.0,493843000.0,494068960.0,494152600.0,494558560.0,495075870.0,495179870.0,495190340.0,494952540.0,494680700.0,494792670.0,494826200.0,494944700.0,494967200.0,494690430.0,494546000.0,494327800.0,494145760.0,494104640.0,494018980.0,493944260.0,493987520.0,494138600.0,494169200.0,494420830.0,494753820.0,494714080.0,494502240.0,494186500.0,493856320.0,493312700.0,493114180.0,493691420.0,494175460.0,494564480.0,494777730.0,494522780.0,493974240.0,493510100.0,493640580.0,493658270.0,493545340.0,493864640.0,494048060.0,494098600.0,494108130.0,494130180.0,494298100.0,494449760.0,494786720.0,494996900.0,495030530.0,495184830.0,495171900.0,495106500.0,494894080.0,494622800.0,494524700.0,494318980.0,494377950.0,494509630.0,494316500.0,494078270.0,493888960.0,494113250.0,494496500.0,494678430.0,494702660.0,494290940.0,493842880.0,493614530.0,493624670.0,494091800.0,494539550.0,494772600.0,494884220.0,494832740.0,494599140.0,494002270.0,493461950.0,493337120.0,493541860.0,493892600.0,493926080.0,493848130.0,493939360.0,494150900.0,494399000.0,494289500.0,494063740.0,493972000.0,494055040.0,494470200.0,494708380.0,494759680.0,494908160.0,494807700.0,494510460.0,494231940.0,493962780.0,493654180.0,493345150.0,493349800.0,493509500.0,493825600.0,494513820.0,494879500.0,494853500.0,494781900.0,494626400.0,494562620.0,494362020.0,494218560.0,494181120.0,493825120.0,493731840.0,494062000.0,494370270.0,494488350.0,494288640.0,493951780.0,493584200.0,493333150.0,493507200.0,494071400.0,494716700.0,495135800.0,495255650.0,495099260.0,494700500.0,494159300.0,493561380.0,493128260.0,493198180.0,493591580.0,493947400.0,494462400.0,494895870.0,495011900.0,495149980.0,495072060.0,494950700.0,495080800.0,495018560.0,494942880.0,494927000.0,494718400.0,494531200.0,494427970.0,494368260.0,494248670.0,494228900.0,494457860.0,494501060.0,494504480.0,494630800.0,494611330.0,494623360.0,494633600.0,494585100.0,494389500.0,493992960.0,493637400.0,493033500.0,492659550.0,493009920.0,493312320.0,493604220.0,494041600.0,494321630.0,494349000.0,493970720.0,493584580.0,493532600.0,493862600.0,494452160.0,494934700.0,495125700.0,494850270.0,494360000.0,493898900.0,493561730.0,493490370.0,493703140.0,494371460.0,494901760.0,494934000.0,494828580.0,494699840.0,494817200.0,494905280.0,494780860.0,494732450.0,494663740.0,494582430.0,494570080.0,494552260.0,494386940.0,494176900.0,494040600.0,494049100.0,494042750.0,493695460.0,493499330.0,493572260.0,493781120.0,494200500.0,494428700.0,494618370.0,494662600.0,494283940.0,493817000.0,493381220.0,493210720.0,493499500.0,494164670.0,494766620.0,494910820.0,494855420.0,494950400.0,495206370.0,495110600.0,494725440.0,494559040.0,494415650.0,494304640.0,494186400.0,493963700.0,493806750.0,493554500.0,493510340.0,493785540.0,493926370.0,494150700.0,494330750.0,494163780.0,494254430.0,494590240.0,494699230.0,494741020.0,494726430.0,494613900.0,494370900.0,494033700.0,493887170.0,493879170.0,494151700.0,494631780.0,494715040.0,494467230.0,494393860.0,494568500.0,494470180.0,494051800.0,493700640.0,493525380.0,493894400.0,494452160.0,494595840.0,494523000.0,494185800.0,493987100.0,494309950.0,494662850.0,495017400.0,495275740.0,495121300.0,494919360.0,494799420.0,494536600.0,494291500.0,494235870.0,494301280.0,494184900.0,493905280.0,493874600.0,493823970.0,493656400.0,493625100.0,493690050.0,494066850.0,494380800.0,494216000.0,493881540.0,493765540.0,494054720.0,494261470.0,494213250.0,494175580.0,494232800.0,494312830.0,494208060.0,494110660.0,493896960.0,493753400.0,494084100.0,494259420.0,494317900.0,494502370.0,494559870.0,494786780.0,495031300.0,495062800.0,495049470.0,494889900.0,494814460.0,494823070.0,494734340.0,494754080.0,494688900.0,494543650.0,494329180.0,493898700.0,493571400.0,493406620.0,493421000.0,493571040.0,493820320.0,494315800.0,494744160.0,494963840.0,494765760.0,494031260.0,493436960.0,492999580.0,492766050.0,493357700.0,494011260.0,494058800.0,493951580.0,493862300.0,494128800.0,494736600.0,495256770.0,495507500.0,495396670.0,495333860.0,495264100.0,495053540.0,495007360.0,494927230.0,494773000.0,494539620.0,494236930.0,493885200.0,493558560.0,493581860.0,493668640.0,493945570.0,494426270.0,494490940.0,494389250.0,494343260.0,494386750.0,494370880.0,494293380.0,494522700.0,494446620.0,494229380.0,494327900.0,493976400.0,493401100.0,493197660.0,493433760.0,494014530.0,494507740.0,494962300.0,495326340.0,495320400.0,495194700.0,494995620.0,494741630.0,494545100.0,494167420.0,493691600.0,493331840.0,493180400.0,493276160.0,493559870.0,494257340.0,495007200.0,495264860.0,495299360.0,495310240.0,495316100.0,495221100.0,494951870.0,494751550.0,494556060.0,494036100.0,493441820.0,493320160.0,493601340.0,493924600.0,494202800.0,494340900.0,494175520.0,494089100.0,494251620.0,494215100.0,494266340.0,494440300.0,494415900.0,494459200.0,494425000.0,494333300.0,494212320.0,494123400.0,494504450.0,494794240.0,494733100.0,494546000.0,493937860.0,493385380.0,493382080.0,493556930.0,493461250.0,493187200.0,493429800.0,494082240.0,494659800.0,495290140.0,495505300.0,495221120.0,494995260.0,494669220.0,494265660.0,494048700.0,494165200.0,494408930.0,494466900.0,494603420.0,494450140.0,493821020.0,493426080.0,493356060.0,493300160.0,493246240.0,493810080.0,494766750.0,495235460.0,495552640.0,495497470.0,495071900.0,494931680.0,494703300.0,494561860.0,494477800.0,494363230.0,494581700.0,494645800.0,494758660.0,494981000.0,495019460.0,495127900.0,495078700.0,495049300.0,494982400.0,494702900.0,494576700.0,494209250.0,493608300.0,493164300.0,492791580.0,492643230.0,492725700.0,492918430.0,493275460.0,493782560.0,494243100.0,494432830.0,494543330.0,494882850.0,495250980.0,495349730.0,495208600.0,494935000.0,494593760.0,494024030.0,493474370.0,493364800.0,493363400.0,493554780.0,493935200.0,493934600.0,493700320.0,493637120.0,493831360.0,494110940.0,494625200.0,495161100.0,495111360.0,495014100.0,494984540.0,494795000.0,494796540.0,494697660.0,494398720.0,493912600.0,493389200.0,493646100.0,494402000.0,494896160.0,495277800.0,495379870.0,494967000.0,494494080.0,494124380.0,493945470.0,493987260.0,493974530.0,494092580.0,494342140.0,494538940.0,494500640.0,494102980.0,493583170.0,492887200.0,492776300.0,493620400.0,494494000.0,495299070.0,495478200.0,494942370.0,494629600.0,494327330.0,494187840.0,494394200.0,494569950.0,494526340.0,494171550.0,494036030.0,494172860.0,494459500.0,494823780.0,494907420.0,494947000.0,494968860.0,495011620.0,495021800.0,494889380.0,494785660.0,494403420.0,493963500.0,493677920.0,493317100.0,493024740.0,492843740.0,492830000.0,493076160.0,493573760.0,494276930.0,494940320.0,495202720.0,495191840.0,495126100.0,495022370.0,495148030.0,495212860.0,495073820.0,494894270.0,494579260.0,494389660.0,493913120.0,493191040.0,493176480.0,493578600.0,493801020.0,493876220.0,493949630.0,494038620.0,494367600.0,494894820.0,494787230.0,494417700.0,494424260.0,494364500.0,494452830.0,494747170.0,494736200.0,494216400.0,493586460.0,493540600.0,493803170.0,494163940.0,494591500.0,494547650.0,494383400.0,494528740.0,494742620.0,494760260.0,494487970.0,494371620.0,494380380.0,494197820.0,494202560.0,494236450.0,494090660.0,494182180.0,494369800.0,494399100.0,494204830.0,493777760.0,493602530.0,493829600.0,494058780.0,494210240.0,494557660.0,494965470.0,495028220.0,494885150.0,494617920.0,494218980.0,494014460.0,494036200.0,494088480.0,494203840.0,494396770.0,494538180.0,494775300.0,494973760.0,494923600.0,494842370.0,494703300.0,494728450.0,494784220.0,494427300.0,493782900.0,492946000.0,492412700.0,492443360.0,493021820.0,494020100.0,494695520.0,495154940.0,495384670.0,495190620.0,495134900.0,494952300.0,494714140.0,494698720.0,494493340.0,494420960.0,494630880.0,494686820.0,494271500.0,493812480.0,493826300.0,493832200.0,493869950.0,493954000.0,494012580.0,494300800.0,494275040.0,494193860.0,494301100.0,494270660.0,494369860.0,494290600.0,493967800.0,493592960.0,493333920.0,493632670.0,494172600.0,494785180.0,495259400.0,495170050.0,494947940.0,494755200.0,494432580.0,494300200.0,494454880.0,494608670.0,494544130.0,494305820.0,493956130.0,493394720.0,493087600.0,493364100.0,493843780.0,494490850.0,494987870.0,495173900.0,495330140.0,495235900.0,495037900.0,494934300.0,494940200.0,494950270.0,494831070.0,494882340.0,494805570.0,494466600.0,494111580.0
