SampleData
1074306.5,2752570.0,762301.9,-1553485.2,575902.9,261269.5,-735322.3,751109.9,-297088.22,51788.445,443052.34,-360883.75,491969.84,-155573.06,53282.19,180827.94,-290830.53,224588.81,-282952.1,-5045.0503,-75558.32,-226246.45,72958.27,-238266.08,65698.68,-71671.25,-11439.824,106961.27,-37701.12,170024.73,15592.861,114535.25,82731.016,19281.195,88802.58,-45018.1,21470.012,-63563.344,-68251.91,-60914.184,-118098.04,-58126.76,-102916.21,-52509.543,-43230.777,-29778.553,21080.738,11647.005,60986.22,54205.676,68895.98,73225.55,51845.76,55690.22,20015.887,10343.9375,-16934.967,-39848.195,-50114.69,-72233.17,-69040.44,-75546.17,-65530.29,-52220.496,-39114.637,-14396.571,396.33386,23092.896,36758.94,47637.945,55160.508,51793.496,48537.69,35133.156,21230.285,4047.5862,-14740.271,-29950.361,-45354.45,-53895.25,-59596.24,-59198.844,-53292.254,-44122.418,-29895.658,-15377.555,863.89575,15538.378,27540.197,36574.14,40290.5,40410.914,35439.895,26731.844,15134.389,1562.305,-11956.849,-25107.012,-35670.82,-43233.285,-47065.812,-46681.883,-42600.14,-34883.625,-24839.164,-13115.843,-1052.1141,10031.296,19426.55,25954.85,29120.404,28769.027,25208.537,18645.06,9766.326,-180.3854,-10483.081,-20138.48,-28013.57,-33438.375,-36299.94,-36180.926,-32928.906,-27386.629,-19937.367,-11302.24,-2562.4697,5520.835,12152.133,16886.52,19159.814,18897.06,16314.604,11521.058,5336.6787,-1710.138,-9052.715,-15749.013,-21339.383,-25300.633,-27203.494,-27049.242,-24829.887,-20902.775,-15879.664,-10001.187,-3880.1619,1620.5286,6135.6577,9278.258,10762.902,10648.914,8933.39,5781.2656,1631.9183,-3090.198,-7870.1265,-12310.999,-15926.796,-18366.006,-19715.43,-19549.121,-18031.6,-15727.226,-12423.414,-8633.833,-4960.4897,-1595.2272,1135.8359,3067.4563,3926.33,3807.8037,2745.8535,846.23114,-1432.7527,-4178.8384,-7065.3013,-9534.05,-11513.408,-12863.131,-13483.038,-13352.374,-12638.14,-11376.152,-9494.712,-7525.4424,-5721.8804,-4004.81,-2800.5037,-1970.3752,-1472.7661,-1658.8506,-2146.5786,-2994.7131,-4054.3884,-5103.239,-6385.223,-7317.4097,-7946.3286,-8480.077,-8591.536,-8518.134,-8228.899,-7715.991,-7229.4,-6703.697,-6251.989,-6030.091,-5812.4087,-5677.8926,-5729.4507,-5826.5635,-6030.452,-6008.602,-5911.158,-6005.7554,-5840.8335,-5588.393,-5379.6035,-5129.4634,-4975.934,-4876.552,-4913.732,-5148.953,-5560.7305,-6133.5356,-6780.779,-7391.8423,-8033.486,-8608.828,-8886.695,-8985.888,-8726.514,-8191.8755,-7580.771,-6553.0757,-5448.8774,-4419.3916,-3349.7598,-2656.5178,-2278.6343,-2208.5417,-2599.6055,-3284.3447,-4269.42,-5576.403,-6987.2515,-8414.477,-9751.634,-10652.699,-11148.196,-11217.126,-10767.058,-9925.478,-8604.288,-6991.7393,-5266.142,-3543.682,-2114.6387,-1081.6976,-497.31647,-387.97995,-896.67944,-1892.0398,-3286.7744,-5233.9434,-7233.4727,-9050.54,-10764.973,-11980.9375,-12618.799,-12793.982,-12268.374,-10957.446,-9283.106,-7382.848,-5207.16,-3142.168,-1328.9354,32.795208,786.26825,904.5189,176.94583,-1058.3085,-2779.0564,-4912.651,-7090.129,-9404.845,-11371.996,-12697.087,-13464.467,-13544.3,-12951.344,-11633.632,-9769.005,-7547.1426,-5166.503,-2888.101,-902.56995,502.62903,1298.6573,1388.8279,724.97925,-572.623,-2503.4749,-4793.819,-7173.54,-9479.978,-11567.712,-13101.014,-13805.473,-13944.408,-13296.568,-11844.049,-9971.276,-7645.5835,-5254.24,-2920.9956,-794.1694,642.35925,1443.8025,1607.3916,1032.6251,-410.69296,-2424.269,-4628.7305,-7128.5225,-9522.029,-11505.444,-13042.124,-13865.499,-13924.342,-13246.925,-11954.034,-10049.612,-7682.498,-5353.6147,-3009.7673,-902.5718,439.15204,1285.0342,1417.0221,693.19977,-560.5034,-2435.0234,-4635.5244,-7044.556,-9359.196,-11170.26,-12716.596,-13565.8545,-13545.176,-12909.108,-11640.077,-9890.8125,-7686.86,-5343.4927,-3153.5425,-1318.1262,50.16755,984.8261,1019.6873,344.30246,-786.939,-2636.1228,-4748.468,-7002.6772,-9184.475,-10786.188,-12125.377,-13010.22,-13101.701,-12547.774,-11318.109,-9593.959,-7540.165,-5423.056,-3521.2917,-1747.5675,-354.65402,368.72165,490.62067,-52.845207,-1236.6554,-2841.051,-4806.739,-6890.761,-8735.632,-10386.187,-11695.791,-12365.986,-12453.121,-11883.069,-10786.433,-9370.596,-7525.835,-5594.8477,-3843.0815,-2256.3157,-984.1763,-278.8072,-351.6769,-815.7845,-1752.182,-3291.176,-4897.1187,-6712.527,-8429.385,-9798.462,-11045.943,-11609.612,-11692.223,-11397.449,-10304.859,-8928.809,-7403.2573,-5717.8423,-4201.568,-2801.3523,-1723.3383,-1197.3649,-1029.6335,-1321.4768,-2256.1177,-3494.0127,-4914.5537,-6555.54,-8054.6807,-9347.991,-10367.241,-10875.286,-10971.222,-10604.864,-9727.214,-8665.14,-7459.5454,-5938.418,-4503.1177,-3305.6208,-2275.0032,-1806.4674,-1789.8513,-2094.975,-2806.465,-3810.9841,-5098.1553,-6382.638,-7653.8306,-8883.858,-9700.174,-10220.488,-10315.708,-9872.052,-9255.616,-8354.348,-7146.7876,-5971.448,-4824.551,-3768.9226,-2954.7507,-2484.9543,-2504.882,-2774.2969,-3295.1775,-4158.6387,-5117.777,-6362.531,-7504.8315,-8232.941,-9039.096,-9427.403,-9398.986,-9371.274,-8815.522,-8026.077,-7165.469,-6014.561,-5039.276,-4262.3354,-3610.82,-3192.0125,-3091.8064,-3342.696,-3848.2214,-4610.808,-5403.36,-6325.406,-7318.102,-7999.7236,-8542.017,-8820.321,-8877.449,-8773.388,-8232.048,-7601.3115,-6922.0605,-6132.4136,-5402.1587,-4692.5635,-4122.3896,-3744.4321,-3733.5496,-3950.5615,-4259.3643,-4848.543,-5469.937,-6235.468,-6960.676,-7421.0557,-7968.167,-8266.243,-8355.2,-8233.24,-7758.4717,-7342.6226,-6760.9297,-6168.678,-5667.7793,-5042.8843,-4569.5396,-4262.299,-4281.333,-4469.754,-4697.1416,-5160.9897,-5681.5264,-6248.0874,-6798.755,-7216.4824,-7470.368,-7683.859,-7817.7373,-7677.0073,-7450.801,-7134.095,-6719.707,-6230.656,-5716.2246,-5328.1772,-5035.192,-4871.0337,-4758.6094,-4823.645,-5091.4023,-5403.7817,-5776.831,-6103.5234,-6623.053,-7062.2207,-7164.2393,-7400.5166,-7426.909,-7222.984,-7132.0664,-6905.3657,-6602.004,-6268.738,-5841.8125,-5493.527,-5380.362,-5295.1875,-5140.772,-5217.4897,-5432.483,-5625.4526,-5914.8213,-6214.2983,-6389.8135,-6535.115,-6775.015,-6977.0713,-6989.193,-6967.316,-6912.8965,-6700.831,-6456.381,-6227.028,-6042.345,-5903.239,-5712.05,-5516.4316,-5463.6074,-5561.3247,-5653.6567,-5780.973,-5977.102,-6174.387,-6262.011,-6281.033,-6558.9883,-6751.628,-6634.2183,-6645.0273,-6680.7256,-6584.305,-6431.0,-6331.597,-6272.8667,-6040.917,-5895.5513,-5878.6675,-5772.0586,-5800.5083,-5931.313,-5994.957,-6047.194,-6122.16,-6182.405,-6269.99,-6408.953,-6390.805,-6367.8965,-6471.06,-6452.9507,-6418.542,-6405.6504,-6301.5454,-6216.599,-6220.3804,-6174.3154,-6057.768,-6067.668,-6100.1523,-6040.428,-6014.073,-6150.627,-6250.3984,-6210.434,-6242.347,-6171.279,-6209.845,-6335.646,-6271.966,-6310.1343,-6265.4224,-6239.2764,-6268.937,-6185.12,-6239.6963,-6215.829,-6150.113,-6217.855,-6274.0547,-6289.603,-6200.9575,-6139.8315,-6216.944,-6134.0254,-6014.3975,-6145.752,-6160.526,-6173.1416,-6268.332,-6167.1934,-6189.8423,-6310.279,-6375.051,-6320.11,-6233.9214,-6397.209,-6365.0117,-6240.9053,-6349.7866,-6324.0938,-6216.2393,-6126.523,-6096.001,-6035.3247,-5912.9966,-6003.381,-6062.762,-6075.5396,-6147.245,-6113.595,-6159.1113,-6172.2534,-6152.6323,-6301.2153,-6392.7075,-6422.95,-6455.4536,-6489.211,-6472.717,-6347.6553,-6297.6646,-6219.9194,-6160.597,-6150.292,-5937.581,-5835.2446,-5973.2524,-6041.4526,-6027.5776,-6069.6064,-6113.5244,-6154.319,-6275.6763,-6375.653,-6468.113,-6482.7183,-6438.519,-6433.519,-6389.49,-6408.1816,-6325.835,-6205.634,-6152.4634,-5953.6353,-5895.7114,-5914.2534,-5858.9214,-5954.778,-6007.8564,-5995.9995,-6094.418,-6146.942,-6224.471,-6378.2534,-6392.587,-6497.9536,-6595.5786,-6518.3164,-6533.888,-6428.185,-6329.044,-6254.2295,-6040.0923,-5970.209,-5882.3667,-5811.9126,-5837.903,-5866.3403,-5917.3525,-5979.481,-6089.09,-6143.506,-6268.215,-6311.632,-6321.0693,-6515.934,-6586.1914,-6636.3965,-6567.428,-6427.29,-6372.2354,-6193.778,-6149.4844,-6035.4766,-5870.44,-5966.639,-5922.5728,-5864.689,-5881.8657,-5837.8726,-6071.572,-6287.275,-6280.797,-6368.076,-6413.527,-6411.782,-6451.3096,-6535.1133,-6533.2266,-6385.816,-6390.717,-6283.408,-6043.524,-5971.1387,-5946.729,-5971.9966,-5874.9688,-5847.046,-5922.027,-5843.1406,-5973.335,-6134.0254,-6209.4976,-6324.465,-6337.3438,-6433.3687,-6522.8613,-6560.6616,-6552.073,-6434.8823,-6300.5474,-6213.426,-6272.338,-6126.856,-5894.7354,-5907.5547,-5896.15,-5951.2354,-5979.4365,-5914.032,-6002.3057,-6086.8076,-6173.9023,-6318.479,-6392.1875,-6451.5527,-6504.6655,-6526.9844,-6506.772,-6419.332,-6259.655,-6140.22,-6167.4956,-6034.5913,-5905.157,-5984.8354,-5930.542,-5941.339,-5989.33,-5999.275,-6112.5283,-6104.477,-6162.5566,-6319.399,-6327.791,-6340.2197,-6490.124,-6571.381,-6460.5596,-6445.2197,-6420.3936,-6168.148,-6144.707,-6202.865,-5946.26,-5919.117,-6039.1436,-5942.062,-5945.0005,-5955.8613,-5889.6426,-5981.1904,-6172.2437,-6282.058,-6447.5366,-6535.479,-6364.2295,-6333.211,-6404.117,-6412.736,-6347.299,-6280.7017,-6284.022,-6121.1646,-6003.626,-6020.3125,-6071.849,-5999.887,-5848.097,-6033.2803,-6153.7744,-6083.401,-6109.27,-6174.8335,-6296.177,-6342.098,-6378.483,-6420.8125,-6382.4365,-6328.453,-6221.534,-6178.918,-6212.501,-6187.769,-6169.0312,-6127.669,-6012.296,-5970.203,-6003.4795,-6104.8047,-6180.022,-6072.2017,-6137.494,-6295.726,-6278.111,-6392.9854,-6418.415,-6330.3525,-6387.3022,-6358.235,-6328.633,-6222.283,-6121.134,-6163.812,-6008.5015,-6067.131,-6209.6895,-6039.5796,-6043.1997,-6070.0273,-6024.583,-6071.6763,-6150.8667,-6257.842,-6326.864,-6342.738,-6287.8,-6321.2837,-6335.583,-6321.421,-6356.1196,-6208.311,-6135.7593,-6148.5864,-6069.2734,-6019.723,-6025.205,-6083.1743,-6080.4854,-5987.6216,-6023.8804,-6222.979,-6161.9507,-6095.5825,-6319.9463,-6320.381,-6268.9097,-6329.548,-6356.9043,-6346.753,-6209.2393,-6195.5083,-6166.4966,-6096.441,-6212.35,-6158.793,-6056.3613,-6110.5493,-6057.7676,-5981.4375,-6092.5024,-6228.088,-6187.481,-6160.815,-6216.0664,-6262.887,-6260.8315,-6217.6406,-6372.033,-6457.297,-6227.718,-6144.344,-6179.794,-6034.287,-6073.58,-6250.554,-6120.9663,-6097.583,-6143.304,-6025.824,-6128.9546,-6196.8267,-6162.1655,-6130.377,-6098.9546,-6230.8477,-6302.8584,-6296.3345,-6257.157,-6263.601,-6278.6685,-6171.082,-6112.4434,-6067.0264,-6161.2163,-6211.669,-6141.406,-6231.906,-6125.9033,-5983.8813,-6083.46,-6197.8003,-6217.29,-6093.679,-6043.4434,-6217.109,-6364.2397,-6266.3687,-6266.4575,-6234.552,-6004.791,-6128.22,-6236.08,-6175.561,-6270.8027,-6265.124,-6150.1343,-6122.5723,-6249.7734,-6222.3906,-6118.1763,-6207.425,-6239.377,-6195.8555,-6182.6455,-6215.702,-6191.1353,-6222.5884,-6281.222,-6110.048,-6139.454,-6321.467,-6177.545,-6080.8896,-6176.9546,-6154.5103,-6181.9854,-6207.4233,-6129.894,-6155.548,-6163.82,-6229.5405,-6254.016,-6194.4727,-6227.759,-6144.911,-6151.7866,-6130.7583,-6091.5894,-6251.0137,-6177.5815,-6175.8247,-6218.8584,-6177.979,-6278.2007,-6165.6836,-6165.1294,-6231.549,-6225.204,-6342.1,-6177.2617,-6104.177,-6247.1694,-6256.26,-6254.339,-6249.6035,-6285.7153,-6151.687,-6103.1885,-6323.5312,-6230.783,-6202.206,-6304.7407,-6219.852,-6268.3174,-6180.9062,-6142.8135,-6176.024,-6033.831,-6171.4517,-6200.4336,-6128.7363,-6266.5186,-6255.5024,-6164.0156,-6088.8184,-6103.9297,-6186.295,-6237.7256,-6200.363,-6172.1987,-6257.4575,-6206.817,-6212.1733,-6252.54,-6188.0957,-6237.7363,-6181.8228,-6089.7983,-6187.24,-6251.883,-6197.9116,-6206.125,-6245.6475,-6188.769,-6166.6055,-6165.8096,-6143.49,-6185.3135,-6192.383,-6178.369,-6249.343,-6197.6934,-6152.2437,-6254.086,-6206.13,-6212.2407,-6218.3804,-6131.5474,-6175.9116,-6099.8726,-6101.39,-6186.868,-6118.427,-6131.3447,-6118.0513,-6111.083,-6173.1543,-6188.947,-6177.2427,-6145.0347,-6172.9224,-6161.3994,-6149.848,-6180.599,-6135.003,-6146.6313,-6173.6826,-6154.6084,-6190.3765,-6158.96,-6061.3604,-6142.7026,-6252.549,-6166.9707,-6104.889,-6134.586,-6134.7935,-6176.606,-6227.2227,-6213.4995,-6288.3955,-6307.531,-6205.887,-6211.376,-6217.837,-6209.0874,-6144.252,-6104.0083,-6214.1606,-6162.1616,-6077.2217,-6181.832,-6243.247,-6165.7637,-6153.7407,-6193.7466,-6119.8027,-6084.8843,-6091.625,-6125.1484,-6240.0063,-6281.311,-6154.013,-6111.7925,-6231.691,-6190.5264,-6196.603,-6227.0977,-6183.415,-6243.508,-6159.6597,-6171.444,-6219.469,-6168.9443,-6281.408,-6151.5547,-5991.1934,-6144.755,-6168.476,-6057.245,-6082.5938,-6185.2188,-6215.389,-6189.544,-6150.2617,-6208.6187,-6290.2056,-6212.0757,-6231.2397,-6251.6616,-6156.4053,-6200.675,-6163.076,-6095.441,-6179.1025,-6185.3936,-6157.2407,-6178.1567,-6196.859,-6260.5254,-6327.8306,-6260.1553,-6210.1206,-6268.335,-6224.785,-6192.386,-6265.5957,-6214.965,-6126.319,-6219.0303,-6214.4585,-6121.7812,-6212.571,-6192.3804,-6157.5347
-6265.559,-6250.2153,-6221.6323,-6239.5693,-6181.361,-6148.017,-6260.239,-6277.296,-6153.1055,-6112.041,-6146.5625,-6202.444,-6112.772,-6129.4746,-6325.9106,-6275.2583,-6129.8486,-6145.325,-6254.1484,-6190.694,-6105.788,-6171.0044,-6132.1313,-6131.017,-6158.797,-6211.0713,-6311.369,-6225.986,-6208.1064,-6243.549,-6146.872,-6191.304,-6223.736,-6229.739,-6361.601,-6258.466,-6160.572,-6210.1567,-6152.5137,-6218.319,-6218.076,-6148.8047,-6196.289,-6122.0415,-6138.0503,-6261.0415,-6234.987,-6175.0703,-6250.9873,-6265.2646,-6068.6294,-6082.967,-6154.586,-6122.769,-6245.924,-6246.7505,-6259.078,-6276.177,-6146.889,-6206.3213,-6198.0825,-6133.689,-6168.581,-6101.6836,-6146.7124,-6149.835,-6122.2773,-6225.7954,-6170.558,-6184.387,-6226.169,-6179.535,-6242.3804,-6231.78,-6212.473,-6209.809,-6171.9873,-6155.7534,-6160.024,-6217.061,-6185.7095,-6146.294,-6134.4136,-6140.109,-6231.4287,-6243.743,-6208.1133,-6144.4517,-6181.032,-6244.892,-6128.175,-6155.2554,-6176.6514,-6151.096,-6232.9316,-6192.0854,-6229.483,-6264.594,-6199.319,-6196.2036,-6183.3994,-6201.082,-6161.239,-6158.9697,-6216.3965,-6155.6724,-6149.4277,-6212.9785,-6243.4126,-6222.6514,-6155.85,-6205.4004,-6312.2026,-6280.3403,-6270.513,-6222.6934,-6121.8545,-6173.8496,-6125.652,-6162.8354,-6242.8213,-6069.187,-6133.697,-6252.338,-6217.3423,-6269.137,-6242.009,-6222.168,-6211.473,-6161.426,-6194.896,-6245.713,-6220.2886,-6153.8066,-6215.2456,-6259.5273,-6221.283,-6215.7773,-6139.6553,-6139.3237,-6196.855,-6188.0967,-6199.5566,-6230.483,-6280.0474,-6189.5366,-6095.2236,-6190.201,-6220.732,-6184.572,-6153.271,-6160.224,-6210.331,-6175.7812,-6186.0376,-6238.132,-6210.219,-6141.5054,-6100.7036,-6167.348,-6173.183,-6111.4663,-6232.6885,-6317.042,-6195.4297,-6208.5156,-6248.689,-6164.492,-6205.012,-6178.4824,-6161.0933,-6176.612,-6003.3525,-6117.0737,-6325.4297,-6206.0605,-6158.7817,-6178.274,-6149.4995,-6232.032,-6228.9688,-6216.489,-6337.081,-6273.1685,-6179.1357,-6182.7466,-6180.235,-6170.337,-6118.9844,-6178.3374,-6167.679,-6189.696,-6274.711,-6169.8384,-6229.3237,-6266.846,-6262.738,-6307.432,-6153.086,-6211.3174,-6240.9375,-6174.2725,-6234.3486,-6125.4497,-6166.711,-6190.2373,-6185.7485,-6327.68,-6234.112,-6223.715,-6217.1133,-6158.3706,-6193.898,-6150.756,-6265.813,-6241.7617,-6127.784,-6206.6274,-6200.9014,-6218.865,-6238.279,-6211.8564,-6191.983,-6218.448,-6224.268,-6108.73,-6139.9814,-6186.521,-6105.263,-6144.964,-6233.9595,-6150.75,-6160.8906,-6291.039,-6132.487,-6107.1157,-6265.6016,-6220.8843,-6212.4033,-6185.607,-6190.95,-6282.136,-6238.911,-6201.8413,-6252.9424,-6233.5195,-6150.1035,-6112.7256,-6134.4004,-6238.69,-6292.123,-6233.5425,-6187.2446,-6176.2627,-6220.664,-6203.7266,-6184.4136,-6235.736,-6188.3213,-6160.546,-6176.3423,-6238.084,-6329.0967,-6175.618,-6069.8804,-6161.4473,-6230.1465,-6260.8237,-6148.9556,-6170.3643,-6214.628,-6147.613,-6217.6113,-6175.048,-6254.0913,-6338.553,-6217.321,-6184.632,-6112.8833,-6182.1533,-6172.7725,-6074.7007,-6230.2183,-6264.338,-6220.694,-6175.601,-6175.156,-6288.539,-6226.5547,-6087.3643,-6100.2495,-6196.8955,-6185.9014,-6161.666,-6248.127,-6273.5986,-6198.379,-6146.6504,-6161.818,-6140.106,-6160.503,-6237.878,-6134.976,-6116.0195,-6341.527,-6283.388,-6086.0747,-6205.9785,-6265.4854,-6226.276,-6301.1997,-6213.5293,-6135.318,-6242.351,-6211.293,-6155.22,-6195.4863,-6186.302,-6197.268,-6200.8335,-6225.3647,-6238.5947,-6178.7886,-6175.054,-6168.4316,-6206.178,-6236.074,-6191.258,-6255.588,-6251.508,-6113.6577,-6097.238,-6184.5,-6200.901,-6207.123,-6246.1416,-6145.1504,-6121.625,-6226.5977,-6185.1875,-6188.745,-6225.433,-6216.5654,-6262.6904,-6220.1733,-6174.248,-6239.012,-6234.8335,-6191.168,-6291.519,-6254.816,-6119.4194,-6213.6357,-6139.0054,-6078.115,-6214.3535,-6123.352,-6131.6704,-6185.0083,-6160.6436,-6263.7583,-6155.2925,-6070.3384,-6181.1655,-6176.237,-6125.3276,-6102.7417,-6169.8926,-6131.8076,-6107.79,-6306.317,-6246.549,-6131.507,-6215.4336,-6238.47,-6203.7227,-6165.265,-6175.244,-6171.5586,-6304.819,-6304.291,-6094.706,-6233.7954,-6246.586,-6133.8374,-6224.651,-6150.021,-6151.353,-6221.596,-6253.1655,-6234.6953,-6147.1704,-6257.2397,-6179.4272,-6152.01,-6305.2896,-6138.004,-6112.467,-6174.067,-6226.4014,-6288.3145,-6173.1636,-6202.556,-6160.5903,-6136.6675,-6269.2695,-6209.799,-6105.6895,-6157.8486,-6269.395,-6229.0815,-6154.467,-6154.5703,-6193.9434,-6217.4155,-6151.7007,-6153.3994,-6154.996,-6156.5244,-6216.7505,-6217.224,-6232.0176,-6233.8296,-6151.793,-6095.993,-6133.2173,-6153.937,-6115.472,-6185.5674,-6279.9277,-6201.222,-6171.254,-6245.196,-6204.6016,-6151.5845,-6156.069,-6094.88,-6100.5034,-6312.623,-6303.4956,-6141.796,-6242.209,-6211.2856,-6153.819,-6204.0405,-6175.9424,-6201.4043,-6157.897,-6218.812,-6265.442,-6218.49,-6284.756,-6238.8213,-6208.146,-6142.29,-6140.113,-6253.406,-6123.506,-6077.8623,-6183.4644,-6219.5317,-6237.583,-6160.738,-6072.748,-6136.2393,-6169.7744,-6121.8394,-6219.2856,-6232.6255,-6165.7065,-6214.3457,-6158.588,-6157.057,-6207.048,-6148.623,-6157.268,-6145.355,-6135.074,-6250.041,-6293.4336,-6207.7793,-6218.2983,-6291.3374,-6211.7485,-6109.6196,-6126.6084,-6186.839,-6188.917,-6158.954,-6175.676,-6161.267,-6161.0815,-6207.712,-6232.905,-6241.199,-6225.4204,-6222.243,-6187.4414,-6241.7383,-6336.1245,-6233.067,-6217.65,-6220.2637,-6110.876,-6184.12,-6241.812,-6205.146,-6230.019,-6236.636,-6240.6978,-6233.363,-6178.5713,-6190.922,-6284.014,-6213.74,-6113.1016,-6225.662,-6208.092,-6137.4536,-6215.0635,-6166.393,-6173.3223,-6268.921,-6236.577,-6234.3374,-6182.416,-6124.2783,-6224.595,-6236.021,-6214.545,-6241.4478,-6190.0186,-6135.6978,-6101.4062,-6179.315,-6212.0513,-6190.488,-6243.242,-6141.1465,-6195.497,-6309.4995,-6220.219,-6189.0645,-6113.6353,-6160.4824,-6158.0107,-6083.971,-6304.3237,-6296.975,-6201.947,-6220.551,-6102.8726,-6150.479,-6156.4556,-6166.6445,-6241.508,-6121.0396,-6165.667,-6251.7817,-6203.578,-6165.1475,-6173.9175,-6225.8,-6189.978,-6159.3022,-6117.3096,-6167.36,-6253.179,-6184.9224,-6219.3364,-6245.192,-6121.639,-6078.271,-6224.827,-6269.577,-6218.1646,-6340.5254,-6279.3423,-6109.544,-6191.206,-6288.4663,-6229.948,-6176.3438,-6202.8726,-6163.3125,-6131.5366,-6207.8247,-6205.1846,-6136.461,-6200.8867,-6162.3413,-6097.386,-6232.9414,-6142.2603,-6095.5356,-6279.0337,-6238.509,-6175.1675,-6167.6167,-6145.3105,-6221.72,-6266.5,-6203.6113,-6118.7837,-6124.3774,-6152.7017,-6183.1953,-6296.0054,-6237.789,-6157.048,-6289.483,-6247.8535,-6191.3745,-6231.2583,-6144.517,-6192.2373,-6265.6553,-6188.201,-6148.147,-6246.498,-6306.223,-6232.8135,-6211.115,-6111.6377,-6036.3887,-6085.4336,-6162.1445,-6289.5327,-6214.7905,-6179.9253,-6188.7734,-6072.679,-6228.4897,-6218.78,-6045.681,-6211.009,-6183.23,-6100.901,-6221.264,-6178.534,-6186.17,-6149.5166,-6135.4365,-6244.574,-6165.1475,-6258.519,-6294.2866,-6197.728,-6296.777,-6208.3047,-6153.2446,-6161.0225,-6121.345,-6240.656,-6268.1826,-6186.9067,-6151.93,-6194.4805,-6137.2617,-6107.1714,-6216.1816,-6143.543,-6153.6885,-6198.2524,-6119.3516,-6154.199,-6163.5464,-6221.017,-6249.0894,-6163.7026,-6168.0864,-6198.1704,-6194.316,-6108.926,-6121.9453,-6215.062,-6172.8306,-6204.6343,-6209.9644,-6174.565,-6273.985,-6186.112,-6093.269,-6220.3735,-6156.6216,-6163.1934,-6304.8223,-6261.2646,-6245.6484,-6053.939,-6022.6616,-6262.1045,-6148.5547,-6176.549,-6269.284,-6221.839,-6262.4165,-6096.02,-6121.7544,-6249.5776,-6122.637,-6111.039,-6174.2847,-6163.455,-6123.788,-6230.681,-6319.676,-6182.403,-6190.8013,-6226.299,-6067.116,-6104.2593,-6246.6987,-6227.59,-6268.3896,-6245.918,-6146.1245,-6198.308,-6212.5703,-6227.1743,-6237.7544,-6142.348,-6136.291,-6174.3706,-6160.453,-6204.0503,-6274.815,-6277.0186,-6268.2266,-6208.7134,-6169.3916,-6166.1406,-6095.8374,-6161.6187,-6226.6113,-6189.7246,-6178.42,-6158.603,-6202.6597,-6194.32,-6108.516,-6105.8687,-6185.818,-6137.2324,-6085.191,-6229.9883,-6200.157,-6166.4023,-6221.5195,-6174.934,-6243.028,-6166.608,-6046.697,-6171.2915,-6210.127,-6126.924,-6139.6646,-6223.6206,-6206.268,-6166.786,-6168.261,-6195.727,-6222.722,-6144.0444,-6178.042,-6176.0493,-6043.9116,-6157.3677,-6277.7812,-6180.119,-6136.348,-6204.331,-6192.1685,-6243.502,-6260.5977,-6147.524,-6239.411,-6114.8765,-6047.744,-6280.604,-6183.4272,-6228.5986,-6202.6245,-6016.846,-6198.9116,-6180.7637,-6178.398,-6299.697,-6124.279,-6112.5674,-6246.9136,-6144.3174,-6092.2983,-6201.9185,-6211.378,-6230.1094,-6240.9204,-6169.423,-6141.5356,-6111.028,-6187.619,-6261.3887,-6189.42,-6126.5645,-6170.2925,-6282.1216,-6192.038,-6169.2754,-6257.228,-6097.985,-6115.8857,-6240.209,-6180.7524,-6172.327,-6213.041,-6190.262,-6150.79,-6238.1343,-6252.5845,-6193.8677,-6206.153,-6191.4414,-6289.766,-6271.1504,-6115.21,-6239.2334,-6289.5625,-6171.81,-6309.8037,-6307.5674,-6102.8496,-6181.8965,-6263.625,-6215.5327,-6169.016,-6186.564,-6241.2866,-6094.3906,-6092.5527,-6228.7036,-6234.031,-6277.5874,-6209.571,-6163.979,-6198.548,-6212.5635,-6234.043,-6130.623,-6154.6743,-6197.6294,-6184.5347,-6252.91,-6111.8594,-6160.779,-6359.277,-6223.771,-6191.7236,-6199.259,-6146.2065,-6241.9146,-6255.663,-6298.0815,-6316.7783,-6234.7856,-6227.609,-6218.963,-6209.4507,-6075.044,-6077.2944,-6284.7495,-6247.609,-6227.0156,-6238.2554,-6164.5444,-6212.1396,-6213.599,-6164.1636,-6134.618,-6100.6562,-6149.704,-6270.415,-6295.666,-6154.74,-6144.376,-6298.9224,-6235.746,-6142.263,-6221.8813,-6165.334,-6156.4854,-6237.599,-6167.971,-6208.135,-6280.019,-6241.566,-6179.4985,-6132.388,-6250.3135,-6233.165,-6112.7617,-6213.3647,-6178.8833,-6138.776,-6254.567,-6174.053,-6137.2695,-6237.4253,-6224.6416,-6175.903,-6104.367,-6083.435,-6190.046,-6236.0547,-6284.1445,-6257.3853,-6064.6255,-6151.3687,-6230.0854,-6110.2583,-6227.889,-6253.568,-6170.4604,-6202.3125,-6233.894,-6177.887,-6082.166,-6200.565,-6206.097,-6175.061,-6237.9443,-6162.229,-6278.395,-6209.5283,-6142.628,-6337.9463,-6125.5674,-6083.3286,-6238.1963,-6118.5664,-6116.844,-6213.1587,-6308.94,-6279.6787,-6248.642,-6246.268,-6142.208,-6191.775,-6192.6367,-6224.896,-6245.3027,-6122.587,-6241.8027,-6252.657,-6184.3853,-6189.854,-6133.1255,-6236.221,-6235.8643,-6235.7363,-6214.786,-6048.27,-6166.732,-6214.8945,-6164.6226,-6311.467,-6370.1772,-6276.697,-6153.8086,-6216.0703,-6208.1685,-6081.934,-6160.641,-6188.1895,-6236.5264,-6270.583,-6170.7964,-6130.538,-6142.2437,-6255.1807,-6194.869,-6143.5356,-6307.6567,-6242.4272,-6168.759,-6201.521,-6159.3145,-6138.638,-6144.6743,-6177.088,-6157.8433,-6111.536,-6176.1636,-6195.0654,-6177.509,-6281.029,-6250.4976,-6174.221,-6149.588,-6078.005,-6169.321,-6233.7456,-6253.1104,-6259.87,-6173.8193,-6228.3687,-6253.4316,-6180.283,-6186.106,-6225.7363,-6177.9663,-6129.738,-6219.2534,-6291.8975,-6270.8994,-6215.712,-6204.6587,-6210.484,-6271.457,-6319.2124,-6215.188,-6206.539,-6186.7373,-6101.0864,-6131.3745,-6132.2036,-6163.04,-6154.469,-6089.308,-6213.4,-6251.989,-6180.044,-6222.541,-6180.4424,-6164.2627,-6177.054,-6151.049,-6191.977,-6170.172,-6176.1665,-6196.796,-6232.4937,-6214.35,-6095.7314,-6146.731,-6143.295,-6125.192,-6224.2573,-6200.04,-6212.472,-6287.385,-6210.9736,-6138.7617,-6208.3306,-6198.9175,-6188.5786,-6192.061,-6175.013,-6231.7666,-6116.6855,-6102.748,-6236.1323,-6221.1074,-6183.156,-6172.805,-6215.757,-6148.9165,-6177.659,-6238.4375,-6192.624,-6325.31,-6275.8403,-6245.4883,-6292.118,-6223.8994,-6247.0566,-6131.736,-6158.436,-6244.1533,-6171.2744,-6178.184,-6161.7485,-6154.788,-6120.8813,-6203.434,-6239.1294,-6120.311,-6171.9097,-6151.8267,-6175.92,-6244.6123,-6240.22,-6283.2954,-6196.2993,-6227.1187,-6260.0127,-6179.5874,-6138.9272,-6123.6636,-6273.095,-6213.655,-6135.9175,-6221.3394,-6196.5566,-6267.3003,-6220.5293,-6119.024,-6119.038,-6133.362,-6195.0874,-6226.032,-6246.5093,-6202.4575,-6217.3413,-6130.707,-6009.4917,-6149.114,-6158.301,-6158.954,-6255.294,-6224.174,-6240.762,-6252.519,-6183.8325,-6150.982,-6136.3667,-6095.844,-6061.035,-6127.1035,-6272.9897,-6234.837,-6124.99,-6201.576,-6191.5957,-6057.145,-6095.0684,-6197.1284,-6174.9087,-6149.922,-6189.207,-6297.6743,-6263.0664,-6083.0337,-6136.777,-6136.017,-6094.3687,-6183.0234,-6139.4897,-6197.4463,-6255.808,-6203.8687,-6181.0576,-6169.818,-6200.706,-6178.094,-6226.9434,-6195.979,-6157.0737,-6303.4644,-6236.6465,-6183.4517,-6203.793,-6135.7095,-6227.4614,-6294.3467,-6254.29,-6159.8906,-6102.437,-6184.793,-6224.904,-6211.608,-6166.6587,-6158.32,-6197.265,-6192.416,-6193.6436,-6192.139,-6210.1797,-6198.6196,-6189.503,-6206.2314,-6165.3896,-6170.536,-6167.3926,-6156.2456,-6205.1177,-6208.5234,-6194.333,-6203.6313,-6228.622,-6238.084,-6196.8403,-6162.5425,-6169.308,-6207.4883,-6225.566,-6173.7183,-6155.5522,-6283.7075,-6293.34,-6123.352
-6200.3193,-6283.936,-6218.215,-6222.3335,-6095.8438,-6150.979,-6246.4375,-6112.38,-6218.6196,-6254.4814,-6170.773,-6267.1113,-6236.2207,-6102.48,-6132.3745,-6207.3687,-6209.915,-6242.42,-6177.544,-6152.474,-6244.746,-6163.627,-6163.8726,-6248.715,-6150.621,-6155.588,-6247.8623,-6247.989,-6315.0664,-6259.264,-6115.8574,-6159.2964,-6152.9316,-6141.9697,-6176.5596,-6166.6675,-6231.0234,-6250.682,-6212.399,-6172.6084,-6179.274,-6155.7046,-6056.7188,-6130.56,-6242.9946,-6301.105,-6287.152,-6199.128,-6197.7407,-6190.1226,-6206.2695,-6131.8003,-6091.5576,-6222.8936,-6181.767,-6182.7373,-6222.2583,-6157.681,-6226.6807,-6257.2324,-6202.0723,-6211.8545,-6194.458,-6145.2285,-6173.501,-6181.5225,-6170.946,-6204.406,-6207.212,-6238.7695,-6189.8364,-6159.1924,-6218.1377,-6175.1484,-6185.135,-6125.3335,-6034.287,-6154.981,-6258.5605,-6236.0073,-6172.706,-6179.408,-6229.7715,-6195.3423,-6131.146,-6187.5215,-6262.0493,-6259.3984,-6251.4688,-6188.876,-6153.393,-6189.3086,-6233.9434,-6167.229,-6108.41,-6175.85,-6134.806,-6207.7114,-6300.01,-6170.8984,-6186.3774,-6316.2764,-6278.6387,-6170.174,-6218.8535,-6223.6636,-6179.9116,-6202.8145,-6121.918,-6161.7993,-6234.164,-6214.444,-6235.009,-6176.7334,-6149.9214,-6126.588,-6128.8525,-6280.157,-6267.213,-6134.2017,-6236.242,-6286.889,-6144.513,-6167.347,-6182.247,-6148.5913,-6179.765,-6178.8843,-6246.1323,-6203.7827,-6154.781,-6190.009,-6185.9395,-6222.7812,-6157.8105,-6166.545,-6206.7603,-6212.156,-6285.2095,-6179.9365,-6127.3066,-6137.151,-6130.519,-6176.66,-6215.394,-6333.4136,-6226.3784,-6110.173,-6220.805,-6202.763,-6182.621,-6253.606,-6232.3345,-6099.242,-6140.208,-6225.5044,-6142.508,-6199.079,-6205.632,-6130.677,-6260.1313,-6276.4346,-6108.229,-6137.1196,-6217.372,-6136.046,-6164.2183,-6262.789,-6241.684,-6212.2886,-6249.581,-6214.53,-6155.5728,-6216.7217,-6177.09,-6119.4575,-6207.4385,-6298.599,-6311.8906,-6212.4194,-6163.03,-6179.817,-6217.2075,-6220.8296,-6134.139,-6152.4966,-6154.4795,-6160.8706,-6229.5913,-6146.395,-6168.9565,-6236.691,-6143.2603,-6132.2744,-6137.0356,-6197.081,-6271.1567,-6162.642,-6193.279,-6264.487,-6212.5605,-6214.759,-6141.907,-6165.002,-6233.1626,-6170.669,-6266.3896,-6235.5737,-6063.9966,-6247.8936,-6279.388,-6050.593,-6159.1523,-6180.439,-6141.687,-6341.4,-6270.6504,-6148.099,-6213.149,-6267.0864,-6269.5933,-6184.085,-6173.489,-6248.7954,-6322.08,-6257.596,-6157.209,-6245.0654,-6205.822,-6153.456,-6267.581,-6224.0527,-6142.9673,-6223.6934,-6313.069,-6183.0195,-6131.741,-6274.124,-6195.7954,-6251.0425,-6317.964,-6104.711,-6142.0005,-6209.3306,-6223.2383,-6258.4146,-6126.0977,-6159.0215,-6156.846,-6116.5645,-6254.2417,-6177.5654,-6143.316,-6197.562,-6092.1816,-6183.749,-6294.917,-6179.817,-6175.567,-6170.19,-6058.8496,-6170.6055,-6202.839,-6057.6064,-6113.8115,-6259.864,-6255.1333,-6059.4946,-6115.467,-6285.068,-6246.638,-6255.4346,-6186.3936,-6241.336,-6253.2373,-6147.957,-6265.226,-6234.9756,-6229.755,-6212.5415,-6079.731,-6160.262,-6210.3535,-6197.0933,-6236.1074,-6284.187,-6247.173,-6224.132,-6263.3394,-6162.9844,-6116.4253,-6210.431,-6309.981,-6302.221,-6242.835,-6217.8726,-6144.381,-6153.8687,-6142.124,-6120.697,-6188.035,-6169.316,-6164.4604,-6152.2886,-6173.354,-6240.236,-6205.631,-6226.5474,-6246.033,-6175.371,-6177.3794,-6235.18,-6233.8745,-6216.3735,-6242.0117,-6221.511,-6148.771,-6230.2607,-6334.64,-6215.169,-6148.213,-6140.69,-6118.077,-6168.4526,-6127.7754,-6178.8843,-6256.3115,-6177.616,-6173.3857,-6175.9507,-6185.787,-6186.3228,-6114.5186,-6170.4214,-6233.784,-6189.2446,-6200.2227,-6221.9077,-6194.2017,-6203.7964,-6170.979,-6136.459,-6213.6978,-6214.455,-6205.5117,-6251.301,-6175.566,-6173.1865,-6236.5625,-6150.1064,-6166.058,-6229.813,-6140.0737,-6200.822,-6252.4077,-6180.5605,-6250.85,-6204.3994,-6151.475,-6245.2734,-6247.3203,-6220.9927,-6167.302,-6210.5415,-6266.887,-6223.1387,-6221.625,-6168.2373,-6224.919,-6242.758,-6163.1035,-6232.0635,-6188.7197,-6178.142,-6263.801,-6233.274,-6229.3843,-6243.646,-6183.9507,-6122.365,-6181.5835,-6182.979,-6118.843,-6181.4146,-6173.2646,-6082.495,-6100.183,-6228.9897,-6214.6978,-6139.902,-6226.881,-6156.7026,-6107.02,-6180.1807,-6178.424,-6208.949,-6100.135,-6106.944,-6270.24,-6226.01,-6173.0063,-6200.4146,-6230.626,-6182.9487,-6196.9717,-6278.2993,-6190.263,-6195.4795,-6265.8887,-6156.2485,-6089.553,-6123.517,-6162.1616,-6213.5938,-6204.305,-6163.723,-6157.2637,-6204.206,-6261.4766,-6195.684,-6204.353,-6272.3633,-6185.9233,-6180.1733,-6239.8853,-6160.2544,-6115.441,-6234.173,-6237.508,-6146.374,-6226.4683,-6233.8604,-6186.6816,-6226.102,-6209.495,-6266.7173,-6273.844,-6206.3643,-6237.7,-6164.238,-6241.302,-6336.166,-6179.686,-6286.9893,-6282.1846,-6183.2397,-6289.6587,-6102.621,-6154.326,-6323.7554,-6169.3516,-6200.309,-6171.912,-6129.5386,-6269.6343,-6259.1743,-6150.3223,-6113.1157,-6167.354,-6183.6255,-6153.9185,-6176.9976,-6183.646,-6199.328,-6296.172,-6264.202,-6164.9336,-6169.3657,-6132.2715,-6173.527,-6149.4526,-6141.306,-6308.5415,-6213.2534,-6199.9277,-6297.5312,-6127.9346,-6116.4116,-6244.4385,-6216.924,-6231.665,-6338.3164,-6230.7397,-6154.2007,-6327.307,-6290.6187,-6112.885,-6122.5796,-6242.405,-6222.516,-6113.376,-6160.891,-6190.8696,-6225.3467,-6275.1143,-6165.3438,-6096.5347,-6122.224,-6198.593,-6225.409,-6182.776,-6260.5693,-6269.4897,-6191.6416,-6231.2593,-6249.419,-6187.9277,-6146.4556,-6157.4424,-6242.2285,-6270.2305,-6153.856,-6147.242,-6184.2886,-6163.1,-6225.476,-6219.1763,-6209.318,-6174.009,-6065.089,-6089.4956,-6204.0317,-6266.1997,-6198.572,-6240.1914,-6231.9893,-6111.1934,-6222.4736,-6164.562,-6081.186,-6239.644,-6226.808,-6178.239,-6190.508,-6129.66,-6162.017,-6271.4966,-6210.698,-6078.4937,-6068.2534,-6145.1343,-6215.521,-6162.4355,-6193.1753,-6295.9014,-6187.706,-6154.514,-6229.8564,-6228.9956,-6312.3857,-6286.0903,-6169.816,-6233.6177,-6219.5835,-6194.4106,-6234.4946,-6162.0947,-6196.9062,-6181.5034,-6166.5757,-6304.1665,-6252.343,-6245.5073,-6240.713,-6041.073,-6064.716,-6228.116,-6203.5674,-6175.3784,-6213.9536,-6196.0605,-6248.765,-6217.4614,-6177.4526,-6309.518,-6233.799,-6144.3706,-6168.675,-6086.161,-6138.9907,-6249.738,-6221.0713,-6188.3027,-6203.4907,-6180.7764,-6117.7314,-6181.265,-6237.2974,-6156.3267,-6248.321,-6346.5415,-6198.475,-6121.2695,-6190.7524,-6176.1597,-6115.818,-6214.945,-6245.471,-6132.251,-6094.502,-6116.0396,-6210.423,-6218.7515,-6253.562,-6284.7886,-6088.0806,-6092.56,-6189.6636,-6110.369,-6125.1733,-6259.96,-6301.268,-6187.2803,-6230.4805,-6290.8696,-6133.0703,-6186.1265,-6293.974,-6200.1045,-6213.186,-6223.8643,-6206.6196,-6250.8506,-6189.761,-6179.84,-6245.3647,-6191.7246,-6111.666,-6098.78,-6088.9067,-6145.298,-6276.471,-6247.0537,-6223.879,-6310.6953,-6217.8896,-6147.756,-6232.087,-6273.236,-6246.707,-6183.1377,-6169.5137,-6180.0586,-6186.413,-6205.594,-6165.3555,-6168.7227,-6206.158,-6175.6733,-6216.3633,-6228.1836,-6166.226,-6212.691,-6201.6147,-6158.64,-6217.8135,-6184.639,-6073.6987,-6057.325,-6185.962,-6254.938,-6190.723,-6236.574,-6238.1113,-6195.8696,-6235.1074,-6134.371,-6220.917,-6417.1714,-6266.9385,-6156.874,-6145.0244,-6094.9307,-6171.4824,-6218.5854,-6157.841,-6179.9106,-6229.9365,-6143.049,-6153.7373,-6203.264,-6152.7095,-6219.2656,-6161.3047,-6077.143,-6219.948,-6228.194,-6191.727,-6245.9346,-6183.721,-6166.6406,-6228.8755,-6203.2505,-6223.2393,-6239.9443,-6164.7,-6184.8335,-6164.864,-6120.0063,-6262.379,-6270.108,-6140.8384,-6180.4346,-6203.4585,-6132.8237,-6115.671,-6191.596,-6291.1797,-6270.0356,-6227.671,-6229.154,-6186.1543,-6175.4185,-6259.0107,-6242.1616,-6075.278,-6148.947,-6287.351,-6256.193,-6216.711,-6163.85,-6236.802,-6210.403,-6210.888,-6266.3394,-6155.913,-6149.7207,-6030.2065,-6129.0854,-6286.249,-6179.177,-6273.9033,-6207.818,-6173.611,-6222.395,-6159.6475,-6175.9565,-6121.4956,-6206.9854,-6216.1113,-6142.674,-6179.447,-6150.591,-6220.1943,-6183.6094,-6157.653,-6271.768,-6192.196,-6205.4775,-6225.901,-6055.3423,-6093.0127,-6172.649,-6175.296,-6248.831,-6177.766,-6099.722,-6134.1885,-6154.4785,-6228.057,-6272.8945,-6220.6494,-6153.524,-6149.4067,-6208.8296,-6215.107,-6155.383,-6146.07,-6218.455,-6195.1064,-6155.636,-6230.5845,-6137.3613,-6100.1226,-6235.25,-6183.6787,-6206.41,-6252.3506,-6187.1133,-6232.3174,-6231.83,-6254.5234,-6237.029,-6173.1523,-6259.621,-6220.1826,-6151.6396,-6190.133,-6187.887,-6178.3047,-6140.6665,-6114.1772,-6137.628,-6215.134,-6209.343,-6124.915,-6205.467,-6287.4854,-6285.047,-6235.6055,-6136.3164,-6175.831,-6198.5176,-6152.862,-6229.5146,-6269.5674,-6225.177,-6202.1694,-6177.0303,-6187.174,-6293.6855,-6291.046,-6160.2314,-6224.177,-6242.4,-6113.2505,-6130.7646,-6191.9995,-6241.7456,-6210.1387,-6226.991,-6276.725,-6149.186,-6144.189,-6172.3057,-6154.377,-6165.0767,-6179.8047,-6255.4453,-6193.84,-6205.7974,-6230.4033,-6207.7573,-6271.8584,-6144.276,-6193.341,-6234.5815,-6090.162,-6202.7036,-6217.783,-6218.5806,-6272.019,-6197.3135,-6194.923,-6127.4497,-6128.383,-6254.4185,-6226.736,-6197.397,-6238.23,-6173.678,-6145.923,-6223.875,-6178.13,-6197.238,-6311.9697,-6219.5537,-6197.03,-6281.726,-6211.7754,-6141.2847,-6128.6167,-6204.718,-6280.0327,-6165.634,-6102.1904,-6208.716,-6219.4834,-6136.829,-6206.448,-6253.601,-6185.8203,-6243.876,-6212.1978,-6127.363,-6216.3877,-6226.6104,-6227.441,-6185.7485,-6039.0054,-6194.903,-6306.5737,-6102.4453,-6108.0454,-6211.495,-6308.8423,-6335.1577,-6102.15,-6185.9834,-6295.049,-6083.314,-6128.7627,-6173.3594,-6194.293,-6359.322,-6312.0166,-6207.8325,-6208.409,-6187.008,-6181.047,-6232.8276,-6268.7646,-6264.5796,-6191.926,-6193.139,-6253.3535,-6156.961,-6186.547,-6336.3105,-6351.2744,-6258.2593,-6187.4937,-6261.585,-6234.474,-6173.506,-6202.9604,-6178.1294,-6219.1606,-6251.14,-6202.7524,-6135.57,-6119.8687,-6229.2803,-6227.7485,-6133.864,-6220.658,-6264.856,-6206.988,-6261.922,-6212.3896,-6160.964,-6215.4785,-6177.0425,-6229.6963,-6190.402,-6077.7314,-6236.2817,-6253.157,-6166.16,-6219.3345,-6160.7056,-6176.718,-6164.372,-6092.4336,-6257.0254,-6272.8047,-6173.6367,-6188.2275,-6146.505,-6118.6606,-6141.6123,-6156.6694,-6121.5137,-6186.592,-6306.8706,-6207.705,-6154.0947,-6278.835,-6290.372,-6226.275,-6157.597,-6143.8394,-6197.6626,-6195.4478,-6343.9634,-6334.418,-6128.23,-6245.205,-6283.082,-6222.2085,-6185.434,-6087.652,-6141.5923,-6170.655,-6240.321,-6194.2197,-6126.2637,-6301.6367,-6214.413,-6114.2637,-6185.863,-6140.0894,-6130.3115,-6141.1377,-6160.0356,-6231.0127,-6220.5176,-6112.9507,-6197.242,-6272.7065,-6098.124,-6108.583,-6150.1963,-6129.506,-6207.4175,-6169.589,-6180.251,-6193.1934,-6117.612,-6148.196,-6187.1675,-6174.1797,-6194.4785,-6188.952,-6145.158,-6229.869,-6244.537,-6169.3403,-6181.546,-6082.1494,-6089.344,-6191.8115,-6203.6724,-6308.584,-6217.7056,-6102.54,-6209.7754,-6170.8496,-6182.204,-6151.441,-6116.1997,-6274.6987,-6135.023,-6103.742,-6233.447,-6169.809,-6180.4033,-6146.9927,-6201.774,-6223.249,-6148.2983,-6155.8745,-6132.9023,-6228.155,-6214.7393,-6127.0317,-6142.419,-6128.1323,-6161.1636,-6144.4873,-6172.056,-6248.8125,-6217.0996,-6214.983,-6196.0103,-6140.6665,-6227.127,-6249.1226,-6107.115,-6122.8145,-6168.999,-6151.297,-6188.6655,-6200.832,-6226.1353,-6210.9985,-6233.9756,-6264.0767,-6191.311,-6220.9326,-6182.8105,-6095.4863,-6180.927,-6258.7163,-6219.786,-6093.789,-6160.9062,-6285.382,-6173.537,-6149.5063,-6173.766,-6202.295,-6237.1704,-6172.802,-6180.94,-6119.7607,-6134.9185,-6201.465,-6147.6665,-6228.5254,-6175.913,-6152.6562,-6206.677,-6117.6245,-6254.564,-6220.547,-6111.269,-6237.768,-6117.2383,-6098.9077,-6232.3667,-6210.21,-6232.6895,-6212.091,-6176.3447,-6157.572,-6137.144,-6277.7637,-6280.039,-6100.2554,-6150.0137,-6201.489,-6193.402,-6236.491,-6194.8403,-6224.624,-6169.3706,-6176.5,-6223.028,-6064.1567,-6176.8105,-6220.322,-6148.6724,-6274.992,-6306.675,-6337.8335,-6225.6978,-6133.6343,-6145.289,-6098.9565,-6215.664,-6223.782,-6146.301,-6224.315,-6254.531,-6118.284,-6129.4688,-6260.14,-6201.5522,-6211.9297,-6200.9355,-6193.66,-6245.207,-6192.0195,-6224.8706,-6230.559,-6277.342,-6222.9585,-6101.0337,-6231.5444,-6205.423,-6204.3433,-6326.528,-6275.876,-6257.719,-6185.8057,-6159.0967,-6260.906,-6184.5605,-6118.275,-6194.106,-6209.414,-6219.0273,-6218.5786,-6214.4077,-6302.829,-6310.776,-6241.4023,-6181.139,-6180.9546,-6205.909,-6124.554,-6151.479,-6168.212,-6126.7773,-6214.383,-6221.9556,-6198.1963,-6203.367,-6150.625,-6084.2104,-6141.9536,-6224.2397,-6184.4517,-6197.453,-6124.159,-6091.8223,-6216.8877,-6163.405,-6152.6836,-6197.4004,-6144.55,-6241.6636,-6329.4365,-6270.4883,-6254.042,-6224.151,-6141.668,-6144.7407,-6186.1953,-6219.932,-6251.039,-6228.2466,-6251.8955,-6227.5728,-6109.8267,-6080.2695,-6144.0337,-6240.098,-6159.4883
-6107.847,-6178.666,-6099.6685,-6122.925,-6120.88,-6104.961,-6253.59,-6231.012,-6154.5615,-6155.4175,-6171.564,-6184.5166,-6164.948,-6215.347,-6329.214,-6294.653,-6109.118,-6108.242,-6180.2803,-6162.771,-6182.476,-6141.3496,-6153.0464,-6254.9336,-6193.6274,-6110.5317,-6181.8413,-6218.1973,-6166.187,-6164.7886,-6193.6484,-6209.87,-6236.1294,-6200.569,-6213.9097,-6242.1533,-6130.9106,-6148.994,-6168.1523,-6059.4746,-6115.129,-6238.9355,-6234.4043,-6181.593,-6227.553,-6205.03,-6125.3457,-6162.616,-6169.1094,-6098.3794,-6113.8657,-6266.6685,-6185.4116,-6013.208,-6106.663,-6109.0444,-6078.748,-6202.3867,-6199.817,-6090.545,-6129.6533,-6237.0957,-6282.7695,-6242.898,-6168.58,-6241.4473,-6245.1494,-6141.765,-6129.071,-6118.54,-6180.5264,-6227.158,-6215.9746,-6197.175,-6132.5347,-6149.3555,-6129.344,-6104.8384,-6204.867,-6324.4316,-6371.0938,-6278.808,-6230.825,-6187.8286,-6146.4854,-6240.3374,-6170.2607,-6103.7393,-6243.915,-6206.794,-6093.9756,-6187.1914,-6269.0137,-6236.9863,-6205.7544,-6161.7134,-6207.3823,-6264.6367,-6123.9688,-6059.7476,-6150.305,-6220.2476,-6268.4966,-6250.454,-6221.5083,-6174.0024,-6177.357,-6235.1885,-6198.1953,-6214.6724,-6228.146,-6225.413,-6283.844,-6272.0044,-6290.038,-6241.09,-6138.727,-6235.516,-6281.364,-6247.224,-6278.7183,-6207.0063,-6240.533,-6336.4453,-6223.3823,-6217.446,-6273.005,-6191.835,-6181.015,-6252.133,-6272.0435,-6195.9185,-6130.194,-6148.447,-6160.7163,-6140.68,-6192.9873,-6265.798,-6265.0347,-6301.487,-6271.3667,-6180.421,-6225.78,-6223.1343,-6153.6895,-6181.845,-6227.2847,-6182.369,-6115.1743,-6180.9917,-6218.9644,-6204.055,-6195.021,-6075.668,-6151.4688,-6264.4556,-6127.9976,-6122.903,-6188.146,-6202.9507,-6210.5923,-6143.1025,-6156.1694,-6231.133,-6288.85,-6212.8574,-6051.2886,-6165.51,-6268.645,-6170.639,-6194.5176,-6242.5166,-6290.8047,-6255.9966,-6150.39,-6248.9087,-6256.921,-6186.2334,-6242.7393,-6261.8643,-6193.538,-6043.1616,-6063.5386,-6173.2153,-6170.2183,-6210.2275,-6266.8037,-6332.184,-6254.2876,-6128.003,-6166.974,-6211.541,-6284.5894,-6248.2573,-6171.724,-6250.067,-6235.233,-6142.9395,-6088.82,-6149.3203,-6251.9146,-6195.4917,-6150.426,-6121.4136,-6098.515,-6204.634,-6221.6797,-6167.067,-6221.0796,-6278.066,-6237.047,-6171.3013,-6182.2764,-6173.3765,-6163.226,-6211.2837,-6182.903,-6205.58,-6238.766,-6156.4517,-6193.9697,-6217.968,-6138.393,-6116.163,-6145.711,-6203.043,-6204.105,-6239.3457,-6197.6323,-6126.256,-6213.5625,-6133.91,-6120.777,-6217.657,-6157.998,-6208.0303,-6162.4297,-6102.4946,-6233.0283,-6207.6113,-6157.323,-6178.968,-6181.6406,-6212.387,-6159.9746,-6137.4434,-6204.9976,-6189.325,-6195.9194,-6235.314,-6237.1587,-6281.795,-6241.5557,-6145.765,-6172.743,-6205.219,-6191.8037,-6188.8555,-6217.7217,-6267.465,-6177.215,-6154.6206,-6249.4966,-6145.2017,-6162.2837,-6234.9014,-6197.0996,-6259.086,-6219.4785,-6220.887,-6219.0034,-6131.8247,-6140.3027,-6216.776,-6270.136,-6104.5884,-6120.9546,-6164.3354,-6100.8037,-6289.186,-6190.1436,-6107.9424,-6165.177,-6089.35,-6231.7207,-6238.803,-6153.739,-6161.935,-6176.5005,-6218.45,-6178.924,-6178.4233,-6151.378,-6120.9565,-6142.085,-6196.8726,-6203.3726,-6127.492,-6230.6904,-6225.761,-6105.2705,-6176.7544,-6225.519,-6197.021,-6197.538,-6197.304,-6148.506,-6188.205,-6192.849,-6154.7983,-6208.3594,-6119.7163,-6191.0854,-6350.129,-6179.8506,-6118.1978,-6236.009,-6265.943,-6242.4883,-6247.575,-6296.767,-6212.323,-6132.6035,-6180.0635,-6201.6123,-6171.794,-6112.6865,-6198.8955,-6254.0225,-6180.601,-6175.7427,-6145.699,-6174.4795,-6178.5366,-6204.631,-6322.286,-6228.972,-6204.7876,-6289.4736,-6178.5005,-6115.001,-6220.054,-6265.1,-6141.1025,-6108.388,-6208.7383,-6196.9004,-6220.543,-6276.945,-6208.0137,-6128.3237,-6114.086,-6186.9683,-6229.7363,-6204.054,-6190.067,-6169.0493,-6204.216,-6225.8906,-6141.3667,-6108.9053,-6185.292,-6206.7593,-6145.0024,-6162.638,-6231.335,-6202.6016,-6152.2114,-6194.1597,-6250.147,-6210.339,-6119.607,-6111.793,-6176.681,-6190.2993,-6178.534,-6200.6978,-6184.822,-6175.1626,-6186.548,-6144.324,-6161.743,-6198.642,-6167.9927,-6113.285,-6047.3667,-6148.2725,-6250.7544,-6148.8125,-6171.3364,-6200.81,-6120.0156,-6185.599,-6233.2754,-6251.3896,-6223.0586,-6122.8945,-6187.9336,-6199.9453,-6122.8154,-6157.1064,-6232.899,-6237.761,-6134.46,-6130.8887,-6192.69,-6154.8037,-6153.1543,-6219.215,-6223.0635,-6230.6816,-6208.054,-6071.3745,-6083.006,-6159.92,-6208.9985,-6240.117,-6196.1187,-6225.02,-6129.43,-6109.424,-6231.4,-6128.105,-6048.6235,-6134.641,-6291.944,-6264.218,-6166.2373,-6252.6294,-6227.8516,-6222.9253,-6248.1323,-6157.867,-6179.1147,-6248.524,-6231.899,-6200.6724,-6234.373,-6179.107,-6116.9077,-6176.5737,-6151.103,-6173.8794,-6172.107,-6119.6284,-6202.86,-6176.4893,-6160.4526,-6229.347,-6193.5493,-6150.768,-6119.522,-6133.598,-6186.0576,-6158.431,-6112.0635,-6206.7407,-6329.7417,-6191.4893,-6085.9688,-6219.083,-6164.744,-6164.638,-6294.0776,-6207.4536,-6270.8013,-6289.254,-6170.562,-6218.8623,-6162.6797,-6174.897,-6201.821,-6125.9893,-6213.507,-6231.5405,-6201.676,-6237.24,-6209.115,-6168.0938,-6192.405,-6254.188,-6207.182,-6145.448,-6173.2485,-6183.154,-6178.0947,-6170.5728,-6191.1704,-6234.1934,-6193.8726,-6145.3496,-6164.6025,-6106.042,-6069.6763,-6186.873,-6205.388,-6163.006,-6253.335,-6287.0293,-6246.577,-6263.0215,-6230.2954,-6209.9946,-6235.095,-6167.598,-6164.585,-6215.4854,-6218.7734,-6275.1826,-6169.8936,-6057.469,-6214.1216,-6194.7583,-6142.5083,-6254.375,-6182.947,-6151.9365,-6123.8687,-6099.302,-6245.7314,-6206.4204,-6101.9263,-6126.6973,-6168.0493,-6214.138,-6228.785,-6187.4907,-6156.406,-6195.1807,-6173.732,-6127.4727,-6176.167,-6256.1875,-6278.575,-6187.4497,-6192.959,-6274.281,-6146.921,-6124.9277,-6232.078,-6184.01,-6180.598,-6134.5415,-6153.081,-6260.8613,-6207.1626,-6235.6123,-6241.3223,-6188.394,-6161.9683,-6143.7656,-6198.6216,-6133.397,-6129.305,-6182.524,-6188.327,-6201.219,-6130.2754,-6189.566,-6186.998,-6158.6025,-6260.063,-6151.323,-6138.257,-6276.055,-6239.7026,-6218.0337,-6232.638,-6143.3296,-6157.0054,-6260.1045,-6165.5776,-6080.2915,-6133.9746,-6238.46,-6299.9214,-6219.466,-6134.71,-6045.039,-6137.2793,-6192.4214,-6073.413,-6263.2637,-6230.3955,-6080.7256,-6278.029,-6204.879,-6112.9775,-6179.725,-6159.453,-6164.122,-6074.415,-6120.5083,-6248.9727,-6198.2007,-6163.239,-6151.9443,-6251.3447,-6309.824,-6201.0137,-6153.0186,-6065.7705,-6083.6646,-6206.119,-6195.477,-6233.207,-6224.5825,-6116.66,-6117.6567,-6170.4287,-6221.3647,-6243.9355,-6201.0166,-6185.3325,-6203.5117,-6179.064,-6090.6826,-6054.0293,-6209.353,-6254.7373,-6184.7837,-6331.4263,-6309.515,-6138.9355,-6182.874,-6201.803,-6209.4795,-6253.788,-6203.974,-6144.3945,-6129.2236,-6114.859,-6175.199,-6271.86,-6223.636,-6239.805,-6287.081,-6215.7954,-6190.026,-6139.675,-6190.145,-6226.197,-6146.554,-6230.131,-6234.8438,-6160.677,-6146.2656,-6145.337,-6231.0483,-6187.7095,-6098.5283,-6196.642,-6243.2954,-6159.608,-6153.1377,-6209.977,-6263.8,-6265.1377,-6187.1255,-6176.813,-6175.2627,-6268.357,-6350.0566,-6149.957,-6155.0444,-6262.54,-6193.318,-6175.943,-6108.861,-6176.236,-6188.9126,-6133.6255,-6291.8647,-6217.0703,-6146.5396,-6200.1084,-6147.835,-6150.762,-6145.891,-6246.965,-6220.022,-6185.055,-6382.0957,-6261.7124,-6182.231,-6284.1216,-6177.5645,-6150.69,-6166.5835,-6141.2866,-6167.313,-6209.262,-6215.7354,-6227.829,-6294.8584,-6300.398,-6243.74,-6124.2363,-6139.1123,-6219.153,-6149.7974,-6203.1963,-6240.2153,-6204.2744,-6171.4995,-6091.589,-6153.76,-6164.8447,-6160.0806,-6259.447,-6247.854,-6227.192,-6195.852,-6167.1113,-6206.6187,-6174.6543,-6170.3306,-6197.8467,-6144.3843,-6185.2114,-6285.5405,-6236.536,-6216.117,-6257.776,-6227.617,-6281.541,-6215.559,-6089.7026,-6250.3076,-6267.6753,-6168.9785,-6205.9287,-6139.7065,-6131.602,-6252.5615,-6321.2095,-6202.058,-6084.61,-6175.509,-6141.478,-6172.1455,-6282.832,-6134.4346,-6186.8257,-6231.6094,-6080.9517,-6197.087,-6209.4917,-6149.413,-6217.1377,-6154.3525,-6202.673,-6267.797,-6224.537,-6252.4146,-6175.159,-6118.1816,-6213.6963,-6220.868,-6129.3706,-6080.77,-6216.1763,-6248.756,-6050.046,-6169.2466,-6298.386,-6183.4775,-6185.2954,-6172.4517,-6227.7144,-6214.1523,-6137.917,-6199.1284,-6162.5586,-6141.914,-6121.7954,-6162.262,-6211.5366,-6119.306,-6137.6045,-6133.2905,-6123.0396,-6200.744,-6226.207,-6178.5054,-6110.169,-6124.86,-6145.391,-6160.4,-6166.626,-6198.051,-6250.561,-6193.779,-6230.5806,-6300.851,-6208.6987,-6136.104,-6183.4004,-6226.423,-6164.7227,-6192.113,-6257.615,-6208.2974,-6233.2295,-6204.5166,-6064.017,-6116.2666,-6214.308,-6195.4526,-6259.229,-6246.986,-6149.2646,-6166.8994,-6136.097,-6058.1704,-6124.5522,-6231.9463,-6140.8213,-6160.85,-6259.6577,-6118.382,-6183.1504,-6297.1904,-6244.0825,-6211.7026,-6099.9004,-6150.6406,-6256.078,-6252.7896,-6209.3394,-6154.806,-6221.5327,-6187.8613,-6243.237,-6269.205,-6093.612,-6187.9263,-6132.7417,-6068.9043,-6242.4546,-6183.3833,-6261.078,-6288.243,-6107.342,-6149.885,-6133.466,-6112.5884,-6222.598,-6202.3267,-6210.7227,-6253.922,-6190.2144,-6243.028,-6278.7935,-6155.3438,-6167.6436,-6160.763,-6089.1436,-6299.556,-6344.7905,-6079.1265,-6163.912,-6209.379,-6052.704,-6232.9126,-6273.4956,-6174.632,-6268.3833,-6216.1123,-6125.0923,-6178.807,-6260.305,-6220.58,-6128.5356,-6171.7783,-6170.8486,-6117.9946,-6225.9272,-6224.815,-6133.8936,-6232.7153,-6223.9033,-6220.0776,-6258.6606,-6173.894,-6200.4966,-6166.3037,-6174.725,-6176.5537,-6100.2256,-6232.921,-6211.7446,-6184.8477,-6213.742,-6088.9194,-6195.944,-6236.902,-6097.575,-6142.4023,-6180.8364,-6155.261,-6156.6753,-6094.838,-6103.62,-6243.5776,-6201.973,-6146.437,-6223.1953,-6146.2466,-6168.0127,-6243.49,-6160.49,-6142.3564,-6150.479,-6197.324,-6168.199,-6129.235,-6293.974,-6307.336,-6222.734,-6239.2466,-6156.1704,-6078.4565,-6183.232,-6258.5347,-6182.19,-6194.6665,-6267.88,-6258.2524,-6258.4707,-6226.7495,-6174.328,-6209.818,-6149.3228,-6079.8877,-6210.384,-6266.944,-6308.8545,-6264.97,-6070.7085,-6149.2515,-6202.1323,-6187.4746,-6236.4087,-6094.5767,-6140.011,-6224.332,-6131.099,-6172.853,-6151.5107,-6205.4385,-6380.631,-6300.3735,-6180.436,-6177.583,-6147.3423,-6200.999,-6318.117,-6269.318,-6211.7944,-6219.783,-6221.9224,-6253.813,-6157.961,-6124.7373,-6200.1685,-6203.736,-6269.1685,-6261.67,-6145.4,-6093.422,-6136.8223,-6288.802,-6265.778,-6060.235,-6157.525,-6236.9663,-6164.3403,-6274.7627,-6192.021,-6137.038,-6195.256,-6155.596,-6211.1055,-6113.657,-6114.0366,-6211.341,-6203.459,-6265.211,-6218.3667,-6205.5815,-6131.3423,-6142.471,-6262.5586,-6071.98,-6117.923,-6232.059,-6185.763,-6258.0645,-6156.931,-6180.0947,-6211.264,-6103.5527,-6169.676,-6218.0576,-6237.693,-6190.3003,-6241.3057,-6211.2817,-6035.8833,-6149.8364,-6113.8325,-6067.998,-6186.0293,-6131.577,-6168.719,-6258.7793,-6262.4746,-6175.6045,-6170.9507,-6279.2812,-6174.4766,-6109.049,-6189.355,-6132.862,-6135.0874,-6244.7935,-6222.589,-6209.4404,-6207.964,-6131.8564,-6248.2026,-6329.5947,-6133.491,-6033.28,-6076.079,-6170.719,-6245.7793,-6169.9097,-6202.3735,-6303.785,-6245.2876,-6180.9795,-6151.828,-6160.5337,-6208.214,-6202.1245,-6193.928,-6236.9395,-6239.931,-6208.5435,-6203.7373,-6161.695,-6165.5586,-6189.248,-6171.3975,-6211.501,-6169.7114,-6143.5396,-6148.495,-6100.192,-6187.0903,-6159.7896,-6168.632,-6300.469,-6223.02,-6272.1226,-6230.909,-6089.4893,-6208.366,-6173.934,-6177.256,-6184.7354,-6092.3223,-6186.9434,-6113.843,-6212.084,-6373.236,-6172.7744,-6177.2656,-6164.5728,-6152.7217,-6262.6694,-6173.8594,-6212.772,-6222.3896,-6208.883,-6290.548,-6177.545,-6223.2217,-6270.2104,-6137.166,-6170.6035,-6112.406,-6064.518,-6124.907,-6180.3027,-6270.714,-6117.2827,-6114.7974,-6269.718,-6177.9067,-6153.593,-6165.5127,-6191.2573,-6194.8896,-6163.0674,-6166.697,-6107.5337,-6202.324,-6292.0337,-6192.5747,-6131.7544,-6223.2866,-6250.6235,-6169.8906,-6214.6504,-6125.39,-6100.1177,-6207.313,-6191.5044,-6256.5215,-6154.9453,-6160.8687,-6296.5933,-6173.68,-6164.955,-6184.034,-6253.503,-6376.8315,-6321.2266,-6260.2656,-6190.705,-6221.6523,-6243.9507,-6157.2046,-6216.629,-6238.633,-6244.7725,-6259.7676,-6141.8906,-6159.3867,-6187.4194,-6161.7036,-6273.1235,-6331.7773,-6249.9478,-6085.582,-6065.2993,-6163.185,-6150.716,-6180.0044,-6220.838,-6210.163,-6238.472,-6291.2407,-6245.1226,-6146.5537,-6205.443,-6180.4204,-6067.3813,-6107.7935,-6129.8687,-6140.0244,-6146.934,-6114.1157,-6187.738,-6221.0645,-6147.5444,-6197.1226,-6238.2993,-6174.1064,-6179.986,-6225.233,-6282.848,-6298.24,-6266.398,-6228.6055,-6165.1074,-6215.51,-6265.4204,-6189.781,-6149.2456,-6142.229,-6130.4795,-6141.79,-6187.7983,-6219.476,-6189.149,-6201.927,-6217.2783,-6203.239,-6214.106,-6170.055,-6203.7163,-6250.6787,-6232.028,-6270.9766,-6237.5283,-6187.3945
-6180.1826,-6204.4736,-6170.7646,-6166.28,-6253.426,-6141.4033,-6160.236,-6264.6064,-6205.012,-6191.283,-6133.789,-6173.8584,-6247.3228,-6226.6655,-6183.5093,-6152.4985,-6223.266,-6163.931,-6047.908,-6092.7993,-6193.2056,-6213.194,-6195.0435,-6222.5874,-6152.4565,-6163.675,-6185.3774,-6063.01,-6118.6284,-6172.2173,-6178.3447,-6201.6724,-6151.8057,-6183.1675,-6162.8784,-6141.032,-6180.199,-6205.3916,-6254.103,-6229.0894,-6186.2744,-6154.047,-6188.6533,-6224.0063,-6172.232,-6198.872,-6211.6245,-6196.5356,-6199.414,-6206.7046,-6216.505,-6119.441,-6135.2544,-6245.2324,-6217.0605,-6212.2744,-6220.465,-6242.145,-6248.185,-6178.7393,-6189.312,-6193.129,-6188.336,-6156.5273,-6158.0796,-6242.441,-6182.4873,-6172.8955,-6247.317,-6240.9023,-6125.085,-6081.5854,-6223.9316,-6255.697,-6290.444,-6210.799,-6173.581,-6335.918,-6122.2217,-6084.8213,-6252.2856,-6134.927,-6244.772,-6316.8955,-6205.912,-6221.0176,-6198.9604,-6214.4116,-6195.9893,-6114.355,-6176.485,-6234.339,-6192.812,-6160.9116,-6239.874,-6241.9336,-6105.5806,-6148.266,-6232.4175,-6235.7983,-6239.197,-6233.3325,-6290.251,-6243.448,-6173.988,-6202.371,-6150.689,-6140.8413,-6175.77,-6169.847,-6187.8154,-6186.4683,-6171.829,-6150.426,-6175.7134,-6228.6914,-6182.1914,-6163.613,-6212.791,-6201.539,-6209.8545,-6274.5596,-6287.242,-6239.869,-6169.961,-6148.2285,-6172.992,-6176.8667,-6260.7656,-6251.278,-6157.2886,-6288.1836,-6253.025,-6121.9434,-6240.432,-6196.284,-6109.649,-6173.4453,-6144.8896,-6170.799,-6244.2354,-6125.0854,-6143.2925,-6261.701,-6137.012,-6225.0913,-6301.7827,-6173.9897,-6213.0713,-6102.8433,-6106.776,-6249.582,-6180.878,-6195.6416,-6206.002,-6151.1235,-6136.5513,-6135.062,-6166.86,-6241.002,-6259.0254,-6181.3525,-6213.1855,-6262.346,-6246.97,-6275.967,-6211.716,-6126.509,-6180.5093,-6179.125,-6215.7085,-6303.602,-6196.0396,-6175.06,-6169.207,-6110.6895,-6183.615,-6209.5117,-6253.076,-6177.8535,-6112.1055,-6207.934,-6163.9556,-6222.628,-6241.324,-6100.973,-6209.889,-6254.6157,-6116.0483,-6133.9985,-6163.892,-6134.4497,-6154.027,-6208.3555,-6259.1357,-6184.6367,-6146.5396,-6237.3633,-6172.9824,-6089.083,-6134.6934,-6182.8184,-6222.2827,-6187.222,-6205.552,-6227.9336,-6123.9463,-6154.6157,-6217.817,-6187.656,-6196.8174,-6189.044,-6171.1587,-6164.5747,-6153.618,-6197.8833,-6211.9404,-6148.273,-6154.485,-6210.5703,-6279.0615,-6223.7764,-6131.0107,-6256.513,-6154.506,-6065.9463,-6249.1064,-6148.0566,-6129.105,-6242.7686,-6266.0225,-6319.074,-6236.705,-6218.9946,-6198.927,-6157.9404,-6186.08,-6136.418,-6180.429,-6179.0796,-6124.882,-6170.074,-6177.431,-6141.7544,-6133.189,-6225.0107,-6259.615,-6191.2505,-6218.1484,-6244.706,-6154.138,-6142.7407,-6234.924,-6248.1875,-6289.4165,-6313.464,-6210.9375,-6158.236,-6200.108,-6276.262,-6248.907,-6241.1064,-6300.021,-6169.398,-6154.292,-6226.2173,-6167.7905,-6171.7554,-6136.9043,-6184.5806,-6245.421,-6179.1777,-6178.557,-6229.6772,-6254.981,-6259.8594,-6308.114,-6180.012,-6168.173,-6264.4443,-6087.3843,-6177.634,-6253.781,-6184.4717,-6308.5854,-6289.081,-6206.0815,-6187.575,-6205.125,-6213.8647,-6265.4595,-6225.478,-6158.4087,-6335.175,-6283.134,-6148.9688,-6172.948,-6198.63,-6252.0786,-6141.624,-6182.3794,-6300.3027,-6206.9844,-6209.991,-6218.6914,-6172.421,-6219.427,-6233.603,-6138.1978,-6133.5405,-6169.5977,-6162.556,-6234.7554,-6211.5874,-6154.521,-6210.3335,-6254.004,-6222.174,-6192.5815,-6285.832,-6276.9395,-6192.1973,-6227.51,-6226.9233,-6200.7554,-6149.8857,-6194.5127,-6251.794,-6069.127,-6073.778,-6224.632,-6176.9214,-6184.931,-6225.5728,-6178.7944,-6151.036,-6148.836,-6146.757,-6174.8335,-6236.2124,-6241.1724,-6193.251,-6211.497,-6220.21,-6093.621,-6088.428,-6211.249,-6169.3438,-6177.8926,-6233.3477,-6153.2344,-6173.1255,-6215.443,-6180.5425,-6188.6396,-6142.7715,-6111.108,-6180.0884,-6237.2144,-6255.122,-6186.4536,-6168.6367,-6258.975,-6236.7944,-6222.179,-6180.3833,-6111.545,-6225.889,-6260.4883,-6190.1104,-6195.784,-6232.8755,-6188.873,-6160.014,-6224.3936,-6193.028,-6188.2236,-6142.9272,-6104.1465,-6234.145,-6236.3433,-6205.5815,-6221.5713,-6092.2153,-6015.5835,-6194.0283,-6249.0537,-6195.2256,-6244.8223,-6170.562,-6230.915,-6238.6816,-6162.62,-6300.623,-6201.3296,-6119.1685,-6153.4663,-6061.3486,-6114.712,-6207.3853,-6201.325,-6162.186,-6205.5923,-6228.613,-6197.4683,-6250.7295,-6233.004,-6197.8296,-6170.46,-6174.1313,-6230.3745,-6199.816,-6208.0483,-6185.281,-6178.2124,-6207.4395,-6174.62,-6236.0547,-6158.0244,-6144.1763,-6247.419,-6104.259,-6114.0576,-6179.6387,-6161.9155,-6189.7227,-6146.6675,-6156.417,-6124.9873,-6216.4775,-6316.6113,-6222.429,-6264.8677,-6167.8804,-6104.2134,-6201.434,-6108.2407,-6222.559,-6295.975,-6171.699,-6241.1396,-6194.9683,-6107.585,-6115.6016,-6151.1177,-6274.1333,-6311.3984,-6287.55,-6169.6143,-6120.712,-6238.9224,-6221.3784,-6210.1616,-6188.892,-6126.54,-6160.066,-6153.688,-6177.616,-6172.9194,-6153.303,-6174.793,-6187.754,-6266.192,-6191.2114,-6135.417,-6181.017,-6156.087,-6155.7534,-6106.7056,-6223.9946,-6244.202,-6048.162,-6117.773,-6164.7515,-6132.4297,-6179.01,-6223.7646,-6316.9004,-6238.81,-6063.571,-6184.5215,-6255.9995,-6112.8887,-6183.318,-6226.3896,-6257.093,-6324.6245,-6203.8813,-6234.334,-6246.1865,-6214.81,-6246.0103,-6171.281,-6207.503,-6205.567,-6176.9277,-6184.7246,-6157.91,-6246.1035,-6222.04,-6124.1455,-6129.2446,-6205.9043,-6273.763,-6183.6265,-6139.6543,-6117.6587,-6095.1006,-6243.554,-6268.871,-6179.297,-6181.987,-6238.3013,-6228.705,-6066.535,-6150.472,-6317.8667,-6204.7427,-6249.001,-6291.795,-6230.771,-6307.5806,-6227.5093,-6158.7397,-6243.6714,-6164.642,-6159.8833,-6299.8535,-6215.446,-6195.6484,-6248.553,-6114.6763,-6149.097,-6210.9146,-6144.9717,-6166.0176,-6227.404,-6250.5366,-6187.3022,-6176.874,-6192.224,-6154.4873,-6177.015,-6145.972,-6183.927,-6307.882,-6244.986,-6161.5693,-6134.329,-6188.8857,-6246.526,-6164.9795,-6178.0786,-6191.353,-6190.7134,-6180.1953,-6182.681,-6269.451,-6136.4653,-6106.0884,-6226.0,-6286.548,-6301.289,-6108.014,-6174.104,-6290.9883,-6145.271,-6206.7583,-6262.443,-6257.8535,-6275.893,-6157.771,-6112.4414,-6161.0386,-6171.6416,-6176.7017,-6247.374,-6291.8413,-6268.856,-6249.225,-6190.4863,-6194.4883,-6167.424,-6123.3423,-6226.164,-6275.261,-6294.2563,-6271.891,-6209.4185,-6237.5796,-6196.1265,-6072.4517,-6139.7812,-6315.855,-6173.798,-6156.065,-6304.5444,-6160.278,-6220.9165,-6213.805,-6140.0225,-6266.893,-6129.0625,-6093.4897,-6101.7163,-6080.326,-6234.3174,-6228.3784,-6149.8325,-6137.1465,-6198.758,-6144.266,-6088.1035,-6178.5654,-6129.0005,-6184.986,-6252.9165,-6193.7563,-6213.429,-6136.6196,-6123.0605,-6176.5264,-6136.513,-6125.2896,-6128.5864,-6232.721,-6291.186,-6214.651,-6222.9966,-6256.468,-6229.4873,-6164.424,-6142.837,-6161.357,-6213.808,-6281.441,-6220.4966,-6208.972,-6192.4624,-6092.445,-6173.698,-6171.292,-6126.528,-6254.821,-6287.261,-6246.4033,-6206.805,-6217.058,-6166.134,-6133.6978,-6190.2305,-6096.051,-6145.167,-6176.243,-6138.1304,-6209.55,-6168.0786,-6215.23,-6148.435,-6092.7285,-6189.3965,-6189.26,-6281.17,-6196.3745,-6126.5107,-6209.7983,-6184.862,-6232.8267,-6165.96,-6127.3706,-6249.784,-6223.4077,-6129.106,-6154.2603,-6282.705,-6305.7554,-6192.4717,-6193.2124,-6267.739,-6144.094,-6129.4307,-6238.0293,-6126.988,-6168.2046,-6213.4453,-6107.8516,-6185.8433,-6263.7036,-6235.0938,-6164.6743,-6168.1685,-6199.4736,-6177.1387,-6187.5903,-6192.7734,-6243.866,-6205.16,-6183.3203,-6276.2725,-6194.0264,-6181.4175,-6284.084,-6274.781,-6189.042,-6117.52,-6184.634,-6186.5205,-6172.254,-6254.6567,-6212.0845,-6149.2593,-6120.4497,-6202.0,-6348.0566,-6234.1885,-6155.3633,-6242.238,-6200.843,-6159.2773,-6127.917,-6150.457,-6273.5195,-6257.4165,-6268.033,-6234.9263,-6117.385,-6245.2285,-6220.5845,-6135.876,-6217.4473,-6078.9077,-6121.976,-6290.1836,-6239.0615,-6165.02,-6145.5767,-6288.2812,-6217.913,-6082.697,-6151.6685,-6118.365,-6190.4805,-6255.425,-6292.0396,-6259.7554,-6108.314,-6183.323,-6139.301,-6139.349,-6238.0825,-6120.1997,-6208.5107,-6221.397,-6050.5737,-6116.5435,-6221.68,-6173.456,-6151.285,-6194.6978,-6120.02,-6154.257,-6204.8394,-6142.716,-6183.1196,-6187.6343,-6199.247,-6141.763,-6096.611,-6148.842,-6161.621,-6238.8896,-6212.1377,-6175.348,-6211.698,-6253.7637,-6215.9795,-6128.0083,-6297.5273,-6266.2793,-6101.6196,-6184.805,-6139.3457,-6126.227,-6202.4097,-6193.4297,-6206.069,-6212.7046,-6175.2314,-6133.352,-6188.741,-6227.053,-6180.1294,-6188.247,-6202.263,-6164.182,-6139.516,-6164.774,-6161.9067,-6154.5356,-6198.5493,-6237.746,-6284.551,-6256.8267,-6188.6357,-6237.842,-6199.6787,-6095.863,-6187.114,-6233.1587,-6171.8613,-6135.5654,-6147.377,-6241.7637,-6232.8047,-6250.7266,-6230.988,-6137.592,-6235.6626,-6200.0396,-6135.028,-6149.905,-6133.3706,-6241.5176,-6231.642,-6230.547,-6290.028,-6270.9565,-6295.2544,-6171.5527,-6069.889,-6118.4736,-6131.4927,-6189.1055,-6220.8677,-6212.0957,-6214.856,-6165.1323,-6162.416,-6197.7393,-6151.6143,-6111.0635,-6147.1074,-6199.0034,-6211.391,-6185.191,-6178.065,-6195.816,-6168.8213,-6146.4463,-6207.7505,-6231.07,-6268.6104,-6315.542,-6208.346,-6203.966,-6294.3276,-6235.13,-6176.327,-6165.1523,-6191.6904,-6230.277,-6111.577,-6061.5757,-6205.0825,-6243.275,-6216.35,-6160.497,-6154.3364,-6248.386,-6166.2305,-6123.2305,-6222.418,-6262.504,-6263.7563,-6197.1587,-6208.7285,-6233.8086,-6175.2266,-6208.7183,-6149.1846,-6059.941,-6184.096,-6244.021,-6140.4023,-6151.5093,-6234.6914,-6152.9307,-6165.7583,-6237.8237,-6111.03,-6126.037,-6178.471,-6164.532,-6188.1772,-6094.084,-6112.069,-6223.5654,-6243.9766,-6195.2305,-6172.0205,-6229.0728,-6193.513,-6185.79,-6180.857,-6175.934,-6280.4473,-6213.8486,-6132.4185,-6141.0176,-6179.5,-6290.484,-6285.2944,-6303.6504,-6248.6816,-6171.6953,-6333.615,-6293.607,-6141.9614,-6182.248,-6191.315,-6227.9927,-6323.297,-6226.9814,-6132.993,-6211.247,-6105.5815,-6040.4,-6230.5137,-6258.459,-6145.918,-6179.0605,-6255.565,-6210.086,-6219.7285,-6204.849,-6096.2974,-6149.4775,-6235.3936,-6205.6357,-6139.229,-6156.2007,-6245.8906,-6266.808,-6199.782,-6188.0454,-6277.0854,-6283.1987,-6195.0425,-6114.859,-6153.563,-6194.5596,-6201.6826,-6278.5566,-6234.344,-6220.6157,-6179.691,-6102.939,-6191.385,-6142.352,-6093.813,-6149.115,-6257.081,-6319.488,-6200.0996,-6293.202,-6312.0757,-6249.3213,-6344.044,-6143.0576,-6181.1133,-6382.7437,-6199.4463,-6169.779,-6188.411,-6131.9736,-6188.672,-6182.761,-6179.362,-6223.9297,-6231.952,-6262.7334,-6308.9736,-6229.5195,-6188.0137,-6274.221,-6206.76,-6136.9004,-6253.905,-6226.48,-6111.008,-6165.369,-6244.196,-6240.83,-6118.4717,-6109.1997,-6224.3677,-6194.5264,-6170.2383,-6194.1343,-6218.7754,-6175.0254,-6170.7046,-6271.8057,-6219.6567,-6164.79,-6200.136,-6214.9155,-6198.67,-6212.0903,-6249.052,-6191.8135,-6180.7925,-6194.6274,-6188.6016,-6217.3677,-6190.3237,-6188.721,-6183.4624,-6195.197,-6241.7456,-6170.959,-6188.582,-6260.246,-6234.093,-6241.5137,-6140.1396,-6122.835,-6251.5586,-6143.701,-6123.7227,-6248.798,-6255.8335,-6268.987,-6165.6123,-6132.2446,-6275.7324,-6299.474,-6285.9565,-6281.1885,-6216.8965,-6187.8086,-6208.408,-6167.3496,-6164.0815,-6136.8364,-6084.7354,-6206.345,-6208.8726,-6260.9946,-6293.9067,-6094.5796,-6222.0967,-6255.547,-6107.394,-6163.465,-6141.91,-6256.4883,-6264.5596,-6089.6387,-6158.192,-6217.2437,-6188.132,-6116.5615,-6116.2886,-6204.2744,-6140.6577,-6108.6787,-6222.0005,-6248.89,-6215.9736,-6256.2007,-6201.104,-6212.178,-6267.383,-6113.3384,-6131.516,-6214.714,-6218.115,-6263.259,-6178.7783,-6187.373,-6237.21,-6150.889,-6171.4194,-6223.944,-6146.525,-6108.335,-6100.663,-6129.2183,-6317.5596,-6286.3423,-6138.1187,-6223.176,-6194.428,-6131.8145,-6211.6455,-6198.422,-6132.923,-6167.704,-6241.955,-6215.337,-6182.4624,-6196.3955,-6117.7476,-6138.491,-6252.3364,-6227.535,-6267.7754,-6217.537,-6095.2812,-6202.75,-6171.4946,-6097.682,-6169.93,-6190.667,-6167.1987,-6126.134,-6194.7676,-6202.0933,-6148.421,-6183.298,-6138.9233,-6070.252,-6066.044,-6157.6646,-6187.852,-6166.763,-6250.86,-6248.227,-6181.072,-6186.607,-6208.7197,-6175.5815,-6181.5195,-6194.5234,-6142.665,-6216.698,-6284.905,-6227.3594,-6192.9585,-6157.917,-6149.8936,-6166.2856,-6100.5947,-6165.9062,-6290.439,-6236.88,-6311.5317,-6245.9844,-6076.4116,-6223.351,-6162.925,-6098.7983,-6186.1475,-6140.7207,-6184.4365,-6211.416,-6356.9766,-6389.6055,-6210.241,-6266.533,-6269.2236,-6185.7065,-6116.6714,-6129.6763,-6211.4272,-6206.6313,-6279.034,-6182.845,-6067.141,-6117.878,-6146.792,-6243.9014,-6154.529,-6127.602,-6279.5576,-6226.697,-6220.657,-6248.186,-6231.647,-6228.295,-6209.0405,-6234.2026,-6181.6646,-6125.4937,-6127.9263,-6179.748,-6260.1553,-6228.129,-6165.0806,-6150.8813,-6120.449,-6137.4844,-6254.569,-6245.439,-6207.1904,-6221.227,-6194.136,-6247.2544,-6155.0913
