SampleData
0.0,-528.241,-3202.4294,-7236.695,-8378.902,-7552.816,-8024.6553,-7754.9463,-7524.2686,-8099.6265,-7771.334,-8199.926,-8447.745,-8425.339,-8965.996,-8828.484,-9112.223,-9153.513,-9019.297,-9140.557,-8801.675,-8789.969,-8508.637,-8284.497,-8187.222,-7910.322,-7930.6157,-7791.215,-7848.596,-7929.183,-8002.678,-8240.597,-8352.059,-8593.613,-8735.608,-8871.743,-8998.824,-9002.827,-9030.054,-8929.057,-8828.731,-8682.469,-8504.553,-8355.181,-8176.1772,-8065.008,-7960.4683,-7919.8755,-7944.2085,-7997.307,-8113.7734,-8241.6455,-8398.177,-8543.841,-8677.132,-8796.078,-8869.622,-8916.069,-8902.248,-8841.78,-8749.3955,-8625.139,-8487.815,-8347.878,-8225.428,-8123.3306,-8048.248,-8012.456,-8025.899,-8078.326,-8159.851,-8270.312,-8391.246,-8517.401,-8632.724,-8719.8,-8779.677,-8811.823,-8807.003,-8752.815,-8672.41,-8578.583,-8467.678,-8354.526,-8249.025,-8167.7925,-8114.1504,-8087.6826,-8098.1963,-8142.119,-8214.037,-8302.376,-8399.742,-8497.898,-8583.534,-8652.6045,-8701.396,-8727.042,-8720.489,-8683.149,-8623.828,-8544.377,-8458.583,-8374.579,-8297.678,-8236.472,-8192.515,-8173.003,-8183.1035,-8218.507,-8271.937,-8340.22,-8410.917,-8477.147,-8544.242,-8594.616,-8628.266,-8650.739,-8645.693,-8614.154,-8563.965,-8507.223,-8446.522,-8385.305,-8329.004,-8281.637,-8258.022,-8243.279,-8247.05,-8276.86,-8311.099,-8363.973,-8420.098,-8472.514,-8524.833,-8554.618,-8577.448,-8592.118,-8590.167,-8570.43,-8527.202,-8486.824,-8445.087,-8390.658,-8348.918,-8327.193,-8312.701,-8305.791,-8313.733,-8330.632,-8360.285,-8397.624,-8427.817,-8459.493,-8489.908,-8511.184,-8526.321,-8534.851,-8531.715,-8512.745,-8485.05,-8452.381,-8420.364,-8397.288,-8375.945,-8357.756,-8348.508,-8342.739,-8347.648,-8365.57,-8383.702,-8402.601,-8426.638,-8450.788,-8469.485,-8482.422,-8489.608,-8490.922,-8488.794,-8478.565,-8461.746,-8449.953,-8437.674,-8417.606,-8401.923,-8393.957,-8385.192,-8379.58,-8380.341,-8384.662,-8395.785,-8410.071,-8422.333,-8434.702,-8442.506,-8447.829,-8453.925,-8453.774,-8449.933,-8441.193,-8432.062,-8430.136,-8423.563,-8416.752,-8416.222,-8413.339,-8409.995,-8408.839,-8411.201,-8419.142,-8426.232,-8427.623,-8429.795,-8432.048,-8428.242,-8424.507,-8422.453,-8422.36,-8426.454,-8427.397,-8425.495,-8424.492,-8423.935,-8424.418,-8424.895,-8428.747,-8432.02,-8433.008,-8436.313,-8431.45,-8425.069,-8427.973,-8432.123,-8435.711,-8430.758,-8420.138,-8414.448,-8408.435,-8400.413,-8397.925,-8405.338,-8410.627,-8416.103,-8424.62,-8431.921,-8444.462,-8449.193,-8450.818,-8455.273,-8456.786,-8455.297,-8446.333,-8441.032,-8427.781,-8412.951,-8410.142,-8405.107,-8403.257,-8397.148,-8392.619,-8398.274,-8410.063,-8421.638,-8428.432,-8447.406,-8457.923,-8457.166,-8459.479,-8456.6455,-8459.67,-8460.0625,-8454.021,-8444.329,-8432.929,-8422.422,-8405.606,-8395.577,-8391.737,-8391.271,-8391.852,-8393.398,-8407.238,-8421.534,-8436.531,-8451.773,-8463.823,-8473.556,-8472.253,-8471.479,-8473.211,-8469.882,-8458.957,-8445.034,-8433.176,-8413.301,-8395.723,-8389.001,-8391.275,-8395.219,-8390.964,-8395.022,-8409.329,-8426.254,-8441.287,-8451.992,-8467.6,-8474.688,-8473.208,-8476.301,-8474.363,-8465.677,-8453.368,-8438.973,-8423.612,-8406.522,-8388.26,-8377.538,-8383.361,-8387.545,-8386.389,-8395.197,-8409.952,-8424.718,-8432.223,-8441.1455,-8460.046,-8470.856,-8471.705,-8471.503,-8468.238,-8461.534,-8453.071,-8438.085,-8422.254,-8409.68,-8389.384,-8380.728,-8385.519,-8380.889,-8380.255,-8387.836,-8400.652,-8419.931,-8435.027,-8443.957,-8456.044,-8470.363,-8469.512,-8465.14,-8467.565,-8461.488,-8449.686,-8431.347,-8413.846,-8401.856,-8382.845,-8371.012,-8371.909,-8376.296,-8384.72,-8392.825,-8401.154,-8413.92,-8428.379,-8439.351,-8451.965,-8462.808,-8461.83,-8464.318,-8471.136,-8465.482,-8449.361,-8433.245,-8422.008,-8408.774,-8394.151,-8384.47,-8384.356,-8388.581,-8384.698,-8393.529,-8414.551,-8422.559,-8430.996,-8445.832,-8460.098,-8470.45,-8470.775,-8468.609,-8472.598,-8469.163,-8449.558,-8435.995,-8427.222,-8411.323,-8395.43,-8384.213,-8387.98,-8392.892,-8393.54,-8401.077,-8410.163,-8423.548,-8430.635,-8439.771,-8453.593,-8453.546,-8458.461,-8462.543,-8455.2705,-8442.381,-8429.199,-8427.231,-8415.335,-8397.614,-8386.907,-8375.312,-8373.904,-8378.541,-8385.928,-8395.94,-8407.565,-8416.485,-8418.152,-8433.102,-8448.407,-8452.952,-8460.527,-8459.467,-8453.733,-8449.364,-8442.682,-8436.9375,-8427.993,-8415.044,-8402.403,-8398.352,-8400.3,-8399.222,-8401.992,-8409.295,-8415.236,-8424.391,-8434.861,-8440.142,-8449.008,-8460.812,-8460.394,-8456.16,-8458.392,-8458.377,-8451.808,-8442.184,-8436.676,-8430.309,-8418.27,-8413.497,-8416.13,-8418.757,-8422.281,-8425.078,-8426.502,-8429.321,-8435.563,-8445.314,-8457.421,-8464.866,-8464.98,-8464.52,-8463.413,-8458.838,-8452.06,-8448.808,-8443.254,-8429.757,-8422.964,-8421.65,-8425.154,-8432.856,-8435.708,-8443.666,-8449.543,-8453.807,-8462.149,-8465.295,-8475.236,-8484.278,-8484.49,-8489.311,-8495.816,-8498.839,-8501.3125,-8504.583,-8503.675,-8503.084,-8508.774,-8522.772,-8540.318,-8551.287,-8568.826,-8593.366,-8610.531,-8624.905,-8642.366,-8662.474,-8680.645,-8694.627,-8702.174,-8709.991,-8725.57,-8737.2295,-8741.938,-8746.798,-8753.8955,-8756.083,-8750.987,-8753.178,-8759.028,-8761.469,-8767.873,-8772.742,-8776.97,-8785.767,-8788.753,-8790.736,-8801.193,-8805.704,-8801.274,-8797.906,-8794.215,-8790.663,-8788.099,-8782.95,-8772.404,-8759.278,-8746.009,-8735.959,-8733.894,-8726.297,-8714.586,-8713.592,-8712.26,-8705.918,-8701.363,-8700.518,-8701.406,-8697.6045,-8687.876,-8676.409,-8672.147,-8670.743,-8661.218,-8649.653,-8640.371,-8634.642,-8626.506,-8611.931,-8602.544,-8594.846,-8590.273,-8587.647,-8576.988,-8574.412,-8572.305,-8568.639,-8578.946,-8578.249,-8566.674,-8562.677,-8559.683,-8557.04,-8555.69,-8549.646,-8535.31,-8522.455,-8514.001,-8509.359,-8512.115,-8508.166,-8500.5625,-8499.07,-8496.703,-8494.826,-8487.903,-8480.826,-8483.372,-8484.824,-8484.584,-8482.401,-8481.338,-8485.67,-8482.119,-8475.801,-8473.579,-8464.814,-8458.086,-8460.291,-8460.871,-8459.27,-8454.775,-8453.267,-8457.063,-8452.723,-8449.521,-8448.905,-8445.253,-8444.796,-8443.333,-8445.42,-8446.123,-8442.151,-8437.202,-8430.036,-8430.74,-8430.813,-8426.221,-8424.114,-8427.899,-8432.478,-8427.034,-8427.007,-8426.032,-8421.019,-8422.252,-8420.513,-8421.521,-8413.229,-8406.576,-8412.777,-8408.4375,-8409.796,-8413.973,-8411.061,-8408.201,-8402.047,-8402.295,-8398.814,-8392.991,-8397.768,-8402.674,-8402.319,-8398.855,-8400.135,-8399.262,-8397.959,-8402.606,-8401.723,-8401.686,-8403.478,-8403.391,-8399.079,-8394.596,-8397.347,-8394.384,-8390.477,-8388.355,-8389.652,-8396.489,-8396.108,-8397.255,-8393.153,-8383.447,-8382.94,-8383.606,-8388.524,-8392.406,-8390.686,-8390.482,-8388.384,-8387.667,-8388.155,-8391.2,-8396.674,-8396.972,-8395.47,-8395.96,-8397.393,-8395.863,-8391.576,-8387.454,-8390.198,-8394.007,-8384.971,-8382.61,-8386.286,-8385.517,-8390.363,-8391.015,-8391.588,-8391.382,-8386.789,-8385.287,-8383.768,-8388.465,-8389.011,-8385.725,-8389.675,-8394.168,-8395.618,-8388.701,-8386.721,-8387.879,-8383.733,-8382.0205,-8380.574,-8389.103,-8395.032,-8391.479,-8391.494,-8388.615,-8388.921,-8387.965,-8383.776,-8386.296,-8386.693,-8383.071,-8384.587,-8393.98,-8395.444,-8390.235,-8390.436,-8387.129,-8385.303,-8383.427,-8377.903,-8374.499,-8369.35,-8374.827,-8383.902,-8379.416,-8376.178,-8378.596,-8378.553,-8376.994,-8376.32,-8374.566,-8376.062,-8383.637,-8389.106,-8387.917,-8381.718,-8382.083,-8383.989,-8379.401,-8380.258,-8379.381,-8376.808,-8374.753,-8369.155,-8370.731,-8368.219,-8365.544,-8372.072,-8375.371,-8377.053,-8373.333,-8375.934,-8383.908,-8379.63,-8380.927,-8385.002,-8381.907,-8380.391,-8383.037,-8387.741,-8387.778,-8387.869,-8385.574,-8379.605,-8379.448,-8380.978,-8382.188,-8385.857,-8387.55,-8380.358,-8379.006,-8387.917,-8388.59,-8385.38,-8380.409,-8379.498,-8387.195,-8387.051,-8385.732,-8390.133,-8388.201,-8383.454,-8382.725,-8379.977,-8381.184,-8386.763,-8386.132,-8389.848,-8394.181,-8388.739,-8387.298,-8394.991,-8397.764,-8391.745,-8394.846,-8403.97,-8407.242,-8405.228,-8396.611,-8398.321,-8406.964,-8406.354,-8404.827,-8403.085,-8403.725,-8407.849,-8414.248,-8423.033,-8426.465,-8428.77,-8432.602,-8436.76,-8440.625,-8436.0625,-8425.137,-8425.035,-8433.041,-8425.013,-8413.199,-8413.965,-8413.91,-8412.452,-8406.511,-8398.783,-8398.776,-8395.265,-8392.474,-8395.288,-8395.405,-8393.408,-8390.307,-8392.373,-8395.476,-8394.156,-8391.152,-8389.752,-8393.591,-8387.235,-8382.114,-8389.115,-8388.89,-8390.495,-8390.04,-8385.073,-8384.308,-8382.016,-8386.067,-8382.974,-8378.462,-8389.986,-8392.475,-8387.769,-8393.262,-8396.257,-8388.21,-8390.539,-8398.79,-8392.793,-8390.716,-8394.75,-8397.764,-8397.897,-8397.63,-8402.755,-8401.567,-8399.929,-8401.6455,-8404.104,-8402.837,-8397.202,-8399.164,-8398.948,-8402.262,-8405.662,-8397.811,-8393.762,-8392.458,-8397.046,-8400.502,-8400.06,-8402.563,-8398.544,-8397.634,-8397.405,-8396.292,-8396.496,-8394.53,-8401.151,-8403.709,-8401.675,-8403.071,-8404.437,-8412.3,-8414.868,-8406.26,-8402.529,-8407.483,-8405.445,-8399.353,-8402.797,-8404.815,-8403.332,-8400.055,-8396.336,-8400.401,-8402.45,-8400.454,-8401.637,-8401.314,-8396.117,-8390.62,-8394.333,-8401.102,-8398.536,-8398.476,-8406.025,-8405.621,-8397.096,-8389.815,-8389.561,-8397.5205,-8399.899,-8394.1455,-8392.258,-8397.077,-8401.971,-8402.63,-8410.165,-8414.5,-8407.189,-8404.452,-8401.647,-8404.868,-8409.817,-8406.667,-8411.031,-8410.042,-8403.997,-8402.61,-8401.798,-8405.687,-8400.96,-8397.709,-8408.582,-8413.289,-8411.297,-8412.741,-8415.355,-8413.516,-8412.7295,-8415.443,-8413.715,-8410.355,-8406.738,-8403.728,-8402.507,-8401.648,-8399.539,-8395.67,-8400.589,-8404.694,-8398.405,-8395.889,-8398.385,-8405.985,-8413.385,-8415.438,-8418.099,-8414.201,-8404.3125,-8401.213,-8407.959,-8411.677,-8408.741,-8410.3545,-8411.184,-8410.185,-8409.163,-8406.988,-8408.866,-8410.532,-8412.344,-8411.133,-8408.856,-8407.218,-8400.224,-8402.91,-8408.109,-8407.234,-8403.787,-8395.059,-8399.901,-8406.481,-8400.789,-8397.597,-8397.147,-8398.304,-8397.263,-8397.645,-8396.019,-8392.277,-8398.311,-8398.346,-8395.103,-8393.898,-8390.07,-8392.952,-8390.826,-8388.409,-8387.523,-8384.666,-8393.508,-8395.584,-8390.366,-8391.138,-8394.486,-8397.877,-8397.793,-8401.642,-8400.984,-8397.334,-8395.708,-8389.692,-8391.529,-8391.271,-8387.608,-8388.819,-8385.083,-8381.535,-8375.434,-8370.364,-8377.812,-8389.3545,-8394.342,-8390.64,-8385.782,-8379.202,-8371.924,-8370.037,-8371.879,-8378.087,-8381.458,-8380.699,-8379.866,-8377.642,-8375.866,-8374.172,-8375.635,-8375.275,-8369.668,-8363.201,-8359.594,-8365.466,-8372.745,-8375.812,-8374.723,-8368.314,-8361.09,-8356.358,-8357.108,-8355.386,-8350.504,-8349.839,-8351.722,-8352.971,-8353.584,-8356.302,-8354.947,-8352.709,-8346.701,-8335.167,-8334.993,-8335.885,-8334.101,-8332.071,-8329.092,-8332.625,-8328.042,-8321.333,-8318.1045,-8313.247,-8311.166,-8302.192,-8299.215,-8296.977,-8285.673,-8283.771,-8279.983,-8278.708,-8274.794,-8259.808,-8263.938,-8268.172,-8256.568,-8247.495,-8240.016,-8234.782,-8226.293,-8210.466,-8197.367,-8189.7993,-8176.2104,-8162.737,-8156.78,-8141.9214,-8122.3125,-8107.085,-8096.065,-8085.0083,-8083.623,-8107.8135,-8130.5703,-8147.124,-8158.5073,-8158.593,-8175.9707,-8195.808,-8203.976,-8206.464,-8209.826,-8233.49,-8256.045,-8280.469,-8307.861,-8316.595,-8332.336,-8351.25,-8360.312,-8372.385,-8380.64,-8383.026,-8396.492,-8422.295,-8429.007,-8421.524,-8431.961,-8446.727,-8462.17,-8489.092,-8502.928,-8504.964,-8520.329,-8533.316,-8537.454,-8543.244,-8543.544,-8543.412,-8541.372,-8534.9795,-8524.938,-8509.929,-8503.147,-8488.529,-8463.874,-8444.871,-8424.766,-8409.529,-8388.305,-8363.638,-8353.995,-8347.464,-8344.94,-8348.637,-8351.554,-8356.961,-8361.669,-8358.917,-8358.353,-8368.56,-8375.32,-8376.66,-8383.867,-8391.517,-8393.225,-8394.544,-8402.76,-8410.349,-8410.939,-8412.108,-8420.062,-8431.734,-8432.94,-8432.872,-8441.086,-8444.502,-8447.135,-8445.365,-8446.925,-8456.176,-8447.898,-8436.773,-8440.452,-8453.636,-8467.539,-8479.895
-8492.769,-8483.481,-8467.303,-8468.031,-8474.29,-8473.645,-8457.235,-8447.642,-8445.704,-8443.06,-8443.844,-8441.376,-8450.972,-8458.386,-8458.94,-8459.551,-8452.423,-8462.3,-8468.242,-8462.58,-8466.539,-8459.765,-8453.522,-8446.728,-8435.558,-8440.179,-8443.556,-8443.93,-8445.565,-8443.245,-8445.869,-8447.107,-8444.269,-8440.787,-8438.059,-8443.539,-8451.025,-8447.295,-8437.776,-8437.63,-8443.311,-8446.756,-8445.667,-8440.37,-8441.771,-8444.111,-8446.727,-8454.06,-8456.791,-8471.445,-8488.612,-8489.222,-8485.102,-8476.164,-8466.471,-8453.516,-8446.743,-8443.621,-8434.957,-8443.6045,-8452.917,-8465.863,-8475.061,-8462.463,-8481.49,-8507.379,-8497.746,-8489.335,-8493.637,-8491.288,-8475.173,-8468.409,-8473.09,-8476.044,-8481.688,-8488.229,-8491.057,-8485.258,-8483.854,-8485.4375,-8474.351,-8455.467,-8438.758,-8462.814,-8525.962,-8558.551,-8557.24,-8565.384,-8563.978,-8537.24,-8512.113,-8488.726,-8484.109,-8499.124,-8485.339,-8470.182,-8488.184,-8516.863,-8530.132,-8512.518,-8496.831,-8500.43,-8504.163,-8488.385,-8449.952,-8436.743,-8455.154,-8474.645,-8506.763,-8536.011,-8538.692,-8533.404,-8539.331,-8554.246,-8547.54,-8513.676,-8480.596,-8488.678,-8550.753,-8573.149,-8520.755,-8480.838,-8480.199,-8475.057,-8445.457,-8395.757,-8360.465,-8382.167,-8401.206,-8396.887,-8397.832,-8385.183,-8384.398,-8378.029,-8371.149,-8370.632,-8353.997,-8349.846,-8335.354,-8331.189,-8339.613,-8350.072,-8370.144,-8345.791,-8330.752,-8326.18,-8304.487,-8308.481,-8298.522,-8283.548,-8271.315,-8265.034,-8287.229,-8299.92,-8304.281,-8301.29,-8300.328,-8297.493,-8272.274,-8267.787,-8266.567,-8249.395,-8254.595,-8258.947,-8247.567,-8263.581,-8289.832,-8273.163,-8235.514,-8205.48,-8206.759,-8228.598,-8204.31,-8180.608,-8201.284,-8219.111,-8221.244,-8196.775,-8164.708,-8148.744,-8145.127,-8152.945,-8154.569,-8159.1084,-8160.045,-8135.3022,-8105.0625,-8089.076,-8090.512,-8103.9844,-8124.2856,-8143.3877,-8153.989,-8142.011,-8111.039,-8091.906,-8078.013,-8073.4478,-8079.0234,-8075.6187,-8080.348,-8086.0913,-8087.3047,-8081.594,-8075.2974,-8086.373,-8082.9585,-8069.2256,-8057.9497,-8048.6274,-8046.86,-8034.5996,-8030.9497,-8035.936,-8024.442,-8001.7134,-7986.2974,-7995.3257,-8010.9087,-8025.9844,-8041.2314,-8032.859,-8017.601,-8021.189,-8027.8643,-8028.855,-8024.953,-8022.451,-8025.148,-8011.7925,-8007.1313,-8031.205,-8028.5337,-8004.252,-7991.8677,-7962.403,-7931.5435,-7936.176,-7957.2676,-7972.6567,-7974.731,-7960.4087,-7942.994,-7942.9644,-7944.282,-7928.1294,-7911.3164,-7894.676,-7907.033,-7942.5063,-7921.2905,-7889.4443,-7920.232,-7955.965,-7971.1133,-8005.3394,-8025.7188,-7993.7085,-7960.615,-7944.8296,-7953.158,-8007.2656,-8048.44,-8057.13,-8045.079,-7989.2554,-7948.179,-7947.3667,-7942.1953,-7937.3647,-7908.119,-7880.154,-7887.483,-7879.977,-7880.589,-7879.288,-7863.2627,-7870.626,-7878.0684,-7884.879,-7885.408,-7886.938,-7894.0454,-7886.6245,-7885.9927,-7883.743,-7875.342,-7865.5635,-7862.7573,-7862.979,-7849.303,-7862.978,-7887.0205,-7888.4766,-7883.7734,-7872.1006,-7862.818,-7848.73,-7845.427,-7857.356,-7850.3237,-7835.6714,-7823.266,-7837.2017,-7853.6475,-7830.0645,-7824.06,-7828.1167,-7830.985,-7848.401,-7840.145,-7829.9165,-7826.1616,-7823.81,-7820.9355,-7797.5728,-7781.2095,-7786.5645,-7828.059,-7848.803,-7829.595,-7846.965,-7857.3335,-7846.7007,-7808.8325,-7750.6294,-7774.7466,-7807.4604,-7782.2124,-7759.7837,-7740.6772,-7727.027,-7721.975,-7766.479,-7860.2095,-7902.3394,-7868.099,-7788.4844,-7715.2695,-7696.1675,-7724.718,-7753.1045,-7736.1514,-7713.7075,-7712.975,-7722.9907,-7735.9746,-7740.72,-7744.7593,-7708.255,-7687.2583,-7761.548,-7825.176,-7832.6104,-7818.0215,-7776.3496,-7733.0874,-7701.0615,-7688.541,-7697.302,-7700.5083,-7708.945,-7719.781,-7719.525,-7714.46,-7708.057,-7720.279,-7718.4463,-7701.8774,-7698.154,-7680.075,-7672.653,-7679.7617,-7684.3794,-7686.715,-7675.662,-7663.1772,-7650.5117,-7647.0894,-7650.588,-7655.3335,-7663.2075,-7663.7515,-7675.4165,-7690.386,-7690.939,-7680.44,-7661.638,-7661.23,-7680.8467,-7685.846,-7662.8164,-7640.7427,-7666.3804,-7714.2246,-7709.1216,-7689.7607,-7697.797,-7694.5547,-7707.796,-7729.9526,-7736.2256,-7728.464,-7687.9595,-7669.9663,-7680.64,-7694.283,-7697.982,-7670.8315,-7664.8774,-7672.646,-7681.4897,-7689.7075,-7665.174,-7642.5327,-7630.291,-7635.8584,-7646.778,-7636.7344,-7637.751,-7639.4404,-7645.0835,-7658.395,-7653.4673,-7630.8594,-7616.075,-7652.724,-7687.3774,-7688.3535,-7712.296,-7752.9023,-7773.052,-7718.16,-7651.682,-7656.756,-7651.4053,-7649.1714,-7659.7935,-7623.0713,-7594.216,-7599.241,-7634.831,-7665.814,-7652.6772,-7650.2954,-7647.7446,-7632.4404,-7629.857,-7624.205,-7634.506,-7640.325,-7625.703,-7622.7725,-7611.963,-7594.4316,-7598.222,-7624.023,-7642.791,-7633.952,-7636.751,-7653.5215,-7656.8643,-7693.602,-7757.9604,-7773.0596,-7762.9253,-7740.577,-7676.548,-7647.8535,-7647.03,-7637.1753,-7675.3545,-7689.535,-7671.557,-7681.6074,-7673.012,-7650.1733,-7593.5234,-7545.547,-7576.881,-7632.2275,-7683.675,-7676.0356,-7624.395,-7614.4653,-7616.7393,-7618.4326,-7627.4565,-7625.715,-7608.7344,-7598.839,-7617.0625,-7638.991,-7652.429,-7653.873,-7652.973,-7661.3857,-7687.3823,-7738.4214,-7733.619,-7669.733,-7634.6646,-7615.0664,-7599.268,-7592.3887,-7583.9404,-7578.9834,-7579.674,-7594.874,-7601.1357,-7594.2812,-7599.2505,-7602.755,-7595.7163,-7579.7437,-7590.165,-7633.5127,-7639.079,-7607.0596,-7581.7446,-7576.1924,-7595.8765,-7612.1943,-7605.0605,-7601.872,-7612.294,-7615.1514,-7614.89,-7613.433,-7604.7515,-7602.952,-7614.874,-7627.097,-7625.1377,-7654.091,-7713.0176,-7715.26,-7689.0254,-7670.02,-7631.6895,-7625.8213,-7619.7305,-7590.6665,-7625.6816,-7653.1206,-7637.8604,-7624.03,-7597.385,-7594.9673,-7575.2114,-7565.3364,-7603.4287,-7604.3496,-7592.6655,-7560.7925,-7545.5273,-7571.7783,-7560.0083,-7558.372,-7560.0493,-7568.6206,-7605.0933,-7614.3677,-7615.65,-7615.8657,-7658.71,-7706.2563,-7667.8174,-7647.9688,-7651.8955,-7611.379,-7612.0205,-7634.94,-7601.47,-7592.9937,-7621.239,-7608.222,-7585.087,-7601.384,-7615.8145,-7569.185,-7528.921,-7525.9194,-7521.6953,-7538.806,-7544.165,-7553.3843,-7572.096,-7559.55,-7547.3584,-7536.2197,-7553.426,-7580.5645,-7570.2764,-7558.741,-7544.941,-7530.9434,-7540.558,-7564.5693,-7573.812,-7562.9473,-7553.179,-7553.6113,-7573.2217,-7594.804,-7606.8086,-7623.2017,-7614.043,-7564.8696,-7545.2305,-7561.6147,-7536.429,-7510.818,-7518.1436,-7509.1577,-7512.083,-7517.002,-7496.645,-7482.035,-7497.5254,-7523.3906,-7518.4536,-7521.081,-7519.958,-7515.877,-7536.354,-7526.287,-7540.3384,-7576.173,-7584.3564,-7583.593,-7538.973,-7515.019,-7542.1743,-7556.678,-7554.923,-7549.2183,-7559.1997,-7537.1426,-7482.5503,-7484.478,-7520.103,-7520.202,-7483.4414,-7467.1396,-7482.9243,-7485.1157,-7479.82,-7483.043,-7503.3584,-7529.977,-7545.4824,-7559.4663,-7537.2954,-7486.568,-7464.1787,-7486.118,-7527.189,-7503.2246,-7456.325,-7474.353,-7489.4487,-7489.8516,-7497.6436,-7486.5137,-7476.704,-7486.1445,-7479.83,-7444.638,-7441.8623,-7464.7793,-7471.784,-7479.14,-7486.469,-7482.192,-7450.5547,-7441.746,-7477.6465,-7491.9644,-7485.5723,-7456.991,-7434.6875,-7472.525,-7514.2915,-7501.7,-7451.1074,-7422.7793,-7434.521,-7443.0654,-7423.292,-7403.54,-7439.013,-7490.9795,-7493.6367,-7500.4814,-7549.0396,-7562.208,-7511.228,-7476.9336,-7489.156,-7496.2144,-7463.4023,-7418.119,-7407.593,-7428.492,-7498.154,-7578.416,-7542.3154,-7465.9795,-7444.3115,-7420.6704,-7420.02,-7437.7583,-7435.9595,-7411.579,-7400.4536,-7431.685,-7431.8345,-7441.75,-7477.7637,-7487.8823,-7529.031,-7537.3867,-7465.5654,-7424.0244,-7441.975,-7456.911,-7483.1943,-7544.4106,-7561.9453,-7513.0415,-7450.689,-7442.443,-7484.4897,-7456.048,-7384.9146,-7399.228,-7440.843,-7433.2803,-7441.831,-7455.59,-7431.4863,-7416.8423,-7415.4565,-7436.569,-7444.934,-7404.8765,-7383.5747,-7376.7866,-7377.1743,-7375.4614,-7378.9287,-7430.306,-7461.335,-7449.88,-7422.719,-7395.7993,-7398.6904,-7429.044,-7462.3184,-7439.086,-7379.9907,-7359.7573,-7404.595,-7475.4814,-7502.166,-7490.496,-7426.596,-7354.4214,-7388.339,-7450.247,-7443.492,-7432.539,-7445.9165,-7418.3745,-7374.0483,-7394.872,-7408.501,-7359.269,-7355.524,-7453.0166,-7557.144,-7547.685,-7447.546,-7363.601,-7347.703,-7369.793,-7359.4106,-7366.6963,-7403.099,-7379.2793,-7346.599,-7361.9585,-7434.2695,-7492.869,-7434.361,-7385.981,-7401.6543,-7372.2476,-7339.847,-7346.5933,-7349.136,-7350.593,-7364.807,-7379.956,-7399.1426,-7407.438,-7374.8745,-7344.322,-7356.1484,-7371.712,-7366.2676,-7383.3774,-7430.2783,-7451.087,-7470.0825,-7493.624,-7455.5366,-7411.5107,-7435.35,-7472.8184,-7465.6772,-7414.5044,-7350.1562,-7333.9995,-7355.877,-7345.6855,-7342.7812,-7366.2446,-7366.36,-7363.4985,-7359.4014,-7338.4204,-7319.963,-7343.109,-7411.802,-7444.2334,-7425.362,-7385.763,-7337.3203,-7329.1953,-7341.7227,-7343.235,-7349.972,-7354.782,-7378.4297,-7402.2964,-7382.808,-7364.6973,-7357.8745,-7341.247,-7321.81,-7316.842,-7348.2803,-7353.04,-7339.223,-7356.559,-7334.4844,-7308.9126,-7335.6274,-7353.6685,-7346.9526,-7335.2686,-7347.5425,-7420.656,-7487.105,-7449.694,-7397.455,-7415.9893,-7409.054,-7332.615,-7281.789,-7298.1167,-7309.1445,-7303.677,-7307.3613,-7298.1978,-7284.416,-7291.4717,-7317.031,-7323.0923,-7297.599,-7258.1646,-7260.2153,-7331.647,-7362.281,-7352.246,-7387.1313,-7412.112,-7399.818,-7377.5366,-7337.2554,-7306.0327,-7318.461,-7346.952,-7373.2114,-7399.1045,-7403.6426,-7347.341,-7261.4956,-7255.671,-7278.77,-7284.7705,-7333.9077,-7337.5586,-7277.487,-7270.5376,-7326.191,-7358.667,-7342.193,-7330.927,-7334.58,-7326.815,-7298.6543,-7304.5757,-7343.293,-7359.0977,-7375.2837,-7355.2607,-7313.388,-7309.783,-7335.3755,-7379.7476,-7336.117,-7255.1885,-7256.776,-7265.7227,-7304.095,-7359.6353,-7361.877,-7331.6694,-7285.214,-7277.9263,-7288.762,-7291.34,-7310.813,-7320.5977,-7319.467,-7297.5986,-7262.088,-7242.5957,-7267.907,-7321.864,-7350.446,-7349.6934,-7309.5244,-7285.906,-7268.5386,-7224.292,-7240.168,-7252.491,-7248.965,-7284.992,-7295.9434,-7305.8887,-7343.0317,-7357.726,-7313.009,-7278.0996,-7317.439,-7333.4043,-7287.1587,-7266.7246,-7291.3643,-7287.8096,-7269.8335,-7268.8716,-7246.025,-7250.9233,-7269.9067,-7249.9395,-7263.82,-7290.193,-7269.344,-7275.076,-7315.4214,-7323.271,-7319.905,-7295.769,-7266.49,-7290.4385,-7284.22,-7251.7095,-7278.8804,-7294.898,-7266.5664,-7258.602,-7270.2676,-7281.594,-7291.341,-7265.13,-7232.013,-7239.676,-7230.9746,-7213.0425,-7233.0327,-7245.993,-7264.5664,-7307.2104,-7328.373,-7313.6772,-7269.7007,-7262.336,-7289.848,-7281.7876,-7262.0493,-7238.6895,-7235.533,-7243.8174,-7244.604,-7303.0063,-7319.1094,-7257.117,-7239.566,-7245.9976,-7265.0366,-7279.325,-7251.794,-7224.9224,-7215.85,-7238.7827,-7262.6353,-7252.997,-7240.375,-7243.8667,-7271.258,-7294.8774,-7301.728,-7288.91,-7263.0566,-7280.525,-7333.605,-7373.802,-7367.847,-7336.051,-7320.7456,-7293.355,-7263.284,-7236.639,-7213.918,-7245.766,-7255.803,-7202.0757,-7200.5054,-7239.812,-7250.216,-7270.0547,-7285.2876,-7264.924,-7252.075,-7273.231,-7309.6646,-7288.0425,-7229.901,-7227.8896,-7223.7373,-7198.697,-7191.264,-7170.7285,-7178.8975,-7235.6904,-7283.245,-7297.944,-7285.591,-7267.0225,-7259.8984,-7256.679,-7229.5703,-7204.585,-7215.3877,-7222.9517,-7229.479,-7239.0728,-7221.2695,-7206.7197,-7227.732,-7298.855,-7373.0444,-7348.792,-7255.435,-7209.902,-7247.9995,-7281.667,-7251.355,-7225.1274,-7239.135,-7285.4814,-7322.467,-7301.574,-7269.888,-7252.3745,-7243.5234,-7240.4087,-7212.8535,-7213.1543,-7263.5947,-7242.3403,-7188.2837,-7213.0586,-7222.0107,-7205.8936,-7209.194,-7245.0806,-7313.329,-7288.4897,-7216.3633,-7186.009,-7192.9473,-7222.2207,-7191.007,-7161.21,-7181.828,-7218.162,-7238.3804,-7214.3174,-7208.7056,-7205.8037,-7205.119,-7222.599,-7239.809,-7287.1104,-7275.961,-7186.8315,-7148.3096,-7232.3516,-7356.5493,-7375.718,-7337.699,-7296.393,-7280.695,-7345.623,-7357.327,-7273.463,-7223.313,-7214.5776,-7214.6167,-7229.641,-7184.621,-7104.236,-7114.133,-7143.9624,-7179.4526,-7230.9424,-7218.575,-7203.596,-7175.922,-7158.739,-7202.5293,-7224.752,-7226.5786,-7183.643,-7131.4404,-7156.672,-7201.359,-7214.018,-7202.1606,-7205.25,-7214.9385,-7213.681,-7212.2754,-7211.672,-7226.071,-7226.7793,-7246.572,-7283.509,-7254.9243,-7230.1147,-7247.843,-7248.0815,-7225.439,-7178.142,-7145.125,-7157.278,-7161.2246,-7167.71,-7188.094,-7200.562,-7247.934,-7269.1284,-7226.782,-7210.424,-7215.3135,-7213.483,-7201.8647,-7179.9214,-7173.328,-7172.1763,-7174.121,-7205.801,-7215.0337,-7173.5347,-7158.0264,-7156.328,-7152.1064,-7178.8945,-7203.8853,-7214.9375,-7211.8027,-7211.0156,-7232.728
-7250.1914,-7247.6685,-7222.095,-7189.5015,-7178.2036,-7187.4536,-7186.7085,-7186.1357,-7208.839,-7235.827,-7240.3555,-7169.306,-7116.463,-7201.3423,-7260.133,-7233.862,-7244.3354,-7266.1343,-7264.0356,-7233.505,-7201.8794,-7226.599,-7261.7134,-7250.8335,-7175.4604,-7106.3047,-7137.115,-7211.158,-7246.765,-7213.5005,-7173.4634,-7178.79,-7179.6953,-7179.277,-7165.6206,-7154.942,-7192.743,-7210.5713,-7174.6772,-7156.7856,-7216.4727,-7271.5654,-7240.624,-7196.9517,-7181.985,-7166.359,-7154.2783,-7169.9316,-7194.7993,-7211.6055,-7236.698,-7262.21,-7307.1147,-7356.1494,-7338.5205,-7292.6123,-7272.8647,-7230.7676,-7166.199,-7146.4927,-7155.65,-7137.5615,-7125.779,-7178.2803,-7232.6006,-7209.744,-7172.873,-7199.3657,-7235.545,-7209.359,-7183.0815,-7199.3496,-7219.492,-7237.7207,-7216.152,-7174.417,-7161.2373,-7165.9224,-7219.703,-7251.72,-7215.8447,-7201.454,-7190.6465,-7185.3574,-7194.5713,-7197.009,-7253.1333,-7283.5996,-7219.8647,-7191.4126,-7218.595,-7192.8257,-7142.4443,-7176.9023,-7273.253,-7308.733,-7281.153,-7302.8066,-7265.5005,-7141.3887,-7170.826,-7250.698,-7209.153,-7182.0938,-7220.0684,-7265.283,-7313.5396,-7282.7793,-7156.326,-7148.327,-7198.9707,-7151.85,-7137.22,-7142.051,-7139.164,-7175.5024,-7199.7056,-7185.6084,-7138.6816,-7131.8555,-7169.461,-7183.943,-7200.4297,-7241.298,-7293.2227,-7300.214,-7241.5225,-7236.74,-7303.838,-7288.5474,-7226.46,-7215.861,-7183.665,-7154.2393,-7134.5347,-7109.4766,-7151.958,-7184.419,-7188.6294,-7181.26,-7115.906,-7133.645,-7225.8936,-7204.0513,-7152.197,-7178.1895,-7187.4536,-7180.92,-7190.279,-7167.1177,-7199.8486,-7330.658,-7429.121,-7417.716,-7286.8354,-7173.7705,-7187.889,-7191.7124,-7177.913,-7223.4155,-7233.6567,-7167.274,-7110.4985,-7119.495,-7143.477,-7147.7183,-7134.5137,-7152.426,-7300.057,-7448.876,-7396.4414,-7265.0356,-7273.06,-7302.2617,-7186.5303,-7116.1714,-7144.674,-7106.447,-7099.465,-7182.6416,-7237.0303,-7249.7637,-7262.1333,-7298.012,-7285.926,-7179.9033,-7105.266,-7136.3765,-7171.0166,-7140.1367,-7169.3022,-7259.419,-7262.166,-7184.8105,-7113.952,-7136.282,-7189.921,-7195.298,-7212.175,-7209.63,-7222.815,-7268.2495,-7229.145,-7186.5234,-7225.8555,-7288.1147,-7312.8096,-7203.896,-7012.7017,-6937.452,-6968.654,-7004.5063,-7060.0366,-7082.669,-7089.8057,-7139.013,-7146.4424,-7143.9404,-7149.6816,-7143.9614,-7163.0654,-7163.014,-7144.1475,-7124.7407,-7132.776,-7130.599,-7071.6504,-7049.104,-7052.153,-7073.3267,-7117.438,-7116.2993,-7112.996,-7118.1875,-7111.7656,-7139.9844,-7172.8926,-7170.9917,-7188.974,-7229.4214,-7238.815,-7216.4927,-7183.594,-7156.691,-7094.432,-7030.7456,-7085.864,-7131.5625,-7088.703,-7139.9946,-7207.362,-7138.984,-7027.273,-6990.648,-7091.234,-7172.835,-7147.7593,-7145.837,-7139.526,-7128.524,-7129.5312,-7093.5093,-7081.6597,-7088.8184,-7062.759,-7038.6675,-7056.178,-7104.4355,-7158.1885,-7172.337,-7143.254,-7171.214,-7197.516,-7126.358,-7095.397,-7153.6465,-7220.702,-7252.6963,-7200.331,-7132.6465,-7158.9517,-7183.8853,-7131.44,-7109.732,-7107.562,-7085.323,-7084.2246,-7069.059,-7070.966,-7076.506,-7060.299,-7091.363,-7117.6025,-7109.6167,-7099.751,-7105.693,-7120.289,-7107.324,-7091.785,-7096.571,-7150.9497,-7250.1406,-7338.4395,-7323.624,-7152.943,-7020.448,-7040.8125,-7080.2007,-7075.5117,-7049.656,-7046.334,-7084.6426,-7113.2666,-7132.3804,-7167.676,-7171.6475,-7148.61,-7140.3394,-7128.6333,-7115.089,-7107.2974,-7108.2466,-7114.867,-7092.6035,-7083.7036,-7119.8423,-7153.658,-7177.4824,-7165.3677,-7139.701,-7159.295,-7195.562,-7236.585,-7231.984,-7163.506,-7130.0034,-7164.9443,-7208.8564,-7198.447,-7175.4316,-7147.1265,-7107.2246,-7135.4575,-7138.0454,-7101.337,-7114.6284,-7119.1216,-7140.089,-7153.6772,-7147.872,-7188.189,-7193.9243,-7167.3667,-7159.8403,-7139.2036,-7117.294,-7149.704,-7243.3877,-7302.664,-7248.939,-7136.915,-7124.309,-7181.7627,-7144.727,-7100.429,-7106.7217,-7101.931,-7131.809,-7145.2915,-7118.704,-7122.692,-7120.5615,-7116.394,-7122.8345,-7114.791,-7115.8823,-7118.557,-7122.1724,-7128.864,-7132.0024,-7136.654,-7136.0312,-7146.679,-7166.2183,-7197.0864,-7228.153,-7226.2686,-7208.012,-7165.757,-7140.1826,-7191.753,-7254.3228,-7292.1045,-7301.077,-7237.1577,-7148.558,-7105.288,-7084.0083,-7046.2847,-7038.898,-7108.806,-7187.449,-7216.5376,-7185.6704,-7154.8633,-7165.813,-7142.44,-7127.913,-7140.6807,-7136.564,-7155.0625,-7164.4497,-7202.2837,-7289.1406,-7301.6787,-7219.3027,-7144.2754,-7118.599,-7094.734,-7106.39,-7172.651,-7235.3384,-7225.067,-7130.4023,-7124.965,-7204.65,-7198.769,-7156.422,-7161.581,-7169.6533,-7124.209,-7091.5537,-7128.0337,-7175.08,-7164.3623,-7138.2026,-7203.35,-7254.9136,-7241.8364,-7234.2803,-7159.379,-7085.3745,-7089.971,-7110.742,-7126.602,-7116.132,-7114.2803,-7135.2046,-7158.9053,-7184.1855,-7170.163,-7164.05,-7204.588,-7214.2886,-7172.835,-7133.954,-7121.6714,-7125.296,-7124.802,-7110.2026,-7110.0854,-7128.329,-7154.3354,-7191.794,-7239.8467,-7314.3096,-7356.647,-7301.079,-7176.832,-7081.713,-7100.496,-7137.5176,-7122.9688,-7139.083,-7166.5713,-7144.034,-7103.1807,-7099.8125,-7134.9585,-7159.1616,-7175.537,-7176.9585,-7165.6797,-7214.637,-7242.251,-7198.5376,-7180.411,-7176.031,-7188.788,-7203.2573,-7199.9014,-7206.3843,-7184.401,-7181.568,-7189.52,-7167.4985,-7172.08,-7194.711,-7251.394,-7304.2188,-7252.749,-7148.665,-7164.295,-7280.091,-7225.5747,-7078.312,-7094.928,-7156.5776,-7153.8486,-7120.013,-7097.76,-7117.5073,-7131.809,-7146.116,-7147.2144,-7149.908,-7197.627,-7197.424,-7157.4043,-7147.3223,-7140.0967,-7120.2715,-7091.5625,-7112.6724,-7223.1177,-7338.096,-7356.2534,-7301.5703,-7254.806,-7228.6523,-7211.136,-7138.5376,-7082.2944,-7137.0337,-7117.4976,-7082.3213,-7141.3696,-7144.7373,-7164.7676,-7213.8613,-7210.0024,-7188.5645,-7142.502,-7110.914,-7117.8784,-7135.397,-7157.457,-7200.861,-7234.081,-7220.44,-7212.714,-7264.676,-7362.1484,-7346.9966,-7193.735,-7116.02,-7128.739,-7116.7188,-7104.7456,-7111.3853,-7117.4277,-7149.8687,-7158.044,-7140.1636,-7180.7334,-7202.374,-7168.833,-7138.4795,-7142.5796,-7200.704,-7231.406,-7259.4233,-7301.5205,-7245.1357,-7225.1797,-7274.239,-7223.631,-7186.532,-7204.9536,-7155.0493,-7098.4424,-7146.7876,-7250.828,-7253.6636,-7223.382,-7249.787,-7194.63,-7101.4844,-7082.876,-7084.249,-7091.6025,-7138.354,-7177.42,-7163.219,-7147.977,-7174.386,-7243.0674,-7276.115,-7262.1855,-7309.67,-7329.278,-7247.3403,-7150.5586,-7110.5103,-7155.465,-7168.3657,-7150.6064,-7169.046,-7165.4136,-7182.7734,-7214.083,-7217.0435,-7189.9595,-7173.487,-7217.533,-7200.197,-7143.041,-7161.249,-7190.861,-7140.8115,-7064.8774,-7126.206,-7248.918,-7294.495,-7271.809,-7220.642,-7217.179,-7199.4785,-7173.343,-7239.0527,-7288.784,-7241.2466,-7186.329,-7225.277,-7299.126,-7294.3877,-7255.2817,-7239.7363,-7208.858,-7153.2036,-7137.4814,-7175.271,-7246.914,-7273.3086,-7206.5557,-7199.5747,-7238.4424,-7254.9463,-7307.0874,-7273.2627,-7134.7886,-7062.5767,-7121.2817,-7163.206,-7119.985,-7149.3735,-7178.8516,-7164.7944,-7188.5405,-7195.3853,-7261.059,-7355.781,-7361.855,-7282.646,-7186.8696,-7186.3994,-7184.0234,-7177.913,-7197.5723,-7104.075,-7065.785,-7133.3257,-7142.044,-7149.087,-7161.033,-7167.6606,-7196.008,-7201.829,-7162.1626,-7145.0854,-7189.4336,-7177.8877,-7144.316,-7156.3853,-7148.4756,-7178.5728,-7231.6494,-7278.9014,-7357.9673,-7387.0117,-7340.6655,-7252.0005,-7180.8926,-7176.8364,-7201.571,-7228.2144,-7194.1157,-7141.406,-7188.353,-7262.684,-7301.449,-7277.7417,-7191.5938,-7212.9233,-7295.96,-7266.6597,-7226.237,-7208.2515,-7209.057,-7279.8096,-7298.377,-7280.501,-7297.6445,-7298.868,-7293.8423,-7262.29,-7252.044,-7292.9326,-7313.0186,-7336.0684,-7360.504,-7360.5894,-7326.2163,-7276.804,-7266.3037,-7264.5728,-7258.07,-7265.0605,-7281.578,-7291.2935,-7290.036,-7296.8486,-7301.5615,-7306.8955,-7305.8853,-7307.8486,-7341.378,-7367.5405,-7366.836,-7390.0835,-7448.5664,-7446.455,-7368.504,-7331.879,-7369.8755,-7403.003,-7378.567,-7361.4253,-7358.07,-7315.3823,-7332.266,-7417.557,-7428.6104,-7373.137,-7369.855,-7401.2983,-7372.686,-7349.28,-7353.145,-7350.628,-7389.646,-7373.969,-7305.473,-7266.414,-7218.082,-7242.2026,-7326.3853,-7419.2886,-7544.4326,-7556.8535,-7447.3286,-7413.7974,-7472.453,-7386.969,-7203.757,-7244.683,-7311.3965,-7226.093,-7236.6445,-7305.575,-7318.6055,-7323.518,-7324.8574,-7277.356,-7253.849,-7325.8257,-7317.0483,-7275.681,-7289.7476,-7268.7397,-7300.6587,-7327.7773,-7306.8633,-7335.2866,-7378.012,-7362.0864,-7293.6006,-7312.6396,-7354.095,-7310.641,-7287.646,-7282.7554,-7273.96,-7294.3525,-7353.082,-7356.9087,-7316.8237,-7398.0093,-7447.6396,-7335.361,-7242.8794,-7266.2466,-7337.702,-7319.958,-7238.75,-7225.2236,-7243.636,-7287.7627,-7325.5684,-7272.0547,-7264.2676,-7292.841,-7204.829,-7138.0454,-7203.6626,-7284.23,-7285.6064,-7300.2505,-7389.313,-7430.1914,-7402.81,-7358.3613,-7293.46,-7236.9507,-7217.1187,-7215.439,-7210.937,-7225.414,-7244.265,-7239.584,-7255.6265,-7290.054,-7298.17,-7318.6313,-7318.1523,-7246.167,-7195.781,-7201.2993,-7242.6636,-7278.647,-7267.5835,-7221.5547,-7186.204,-7217.584,-7216.3535,-7213.1826,-7294.158,-7339.563,-7340.1943,-7283.1255,-7249.787,-7280.31,-7225.37,-7199.836,-7221.022,-7206.157,-7224.8374,-7211.9766,-7154.746,-7173.1494,-7244.0405,-7235.47,-7210.5713,-7223.4336,-7222.6396,-7263.024,-7308.2183,-7383.5576,-7466.1016,-7406.619,-7282.2188,-7202.642,-7226.266,-7229.0444,-7164.6978,-7204.4897,-7227.614,-7243.107,-7310.2397,-7304.7324,-7318.855,-7356.849,-7355.104,-7323.8022,-7329.276,-7367.8857,-7281.901,-7196.6206,-7191.9917,-7180.294,-7196.189,-7193.439,-7185.96,-7199.768,-7215.0767,-7256.942,-7284.1055,-7250.8955,-7196.046,-7204.5967,-7204.1685,-7154.8857,-7192.8447,-7272.6924,-7285.8477,-7288.598,-7312.083,-7292.4253,-7243.854,-7239.088,-7267.446,-7285.283,-7281.017,-7270.6084,-7239.0156,-7199.188,-7189.9497,-7193.517,-7264.9365,-7385.5767,-7408.056,-7307.979,-7171.361,-7170.4844,-7298.1753,-7310.0103,-7224.1963,-7210.614,-7227.326,-7215.3013,-7254.289,-7297.9097,-7244.311,-7210.0137,-7218.0186,-7203.468,-7202.7925,-7195.74,-7186.921,-7182.249,-7187.7505,-7242.5615,-7298.646,-7310.206,-7288.976,-7278.4653,-7262.4683,-7226.015,-7225.632,-7249.114,-7296.8457,-7365.941,-7408.6807,-7406.894,-7384.5356,-7326.0713,-7201.9863,-7166.0034,-7197.4653,-7178.767,-7194.713,-7194.5713,-7201.0054,-7222.731,-7190.8647,-7219.4336,-7241.6714,-7236.5874,-7282.96,-7288.0747,-7275.6177,-7267.3994,-7234.1353,-7251.6313,-7330.019,-7346.5703,-7295.0615,-7277.487,-7258.4194,-7230.6255,-7197.4854,-7178.099,-7262.847,-7378.129,-7433.112,-7377.694,-7282.6714,-7279.74,-7270.2676,-7238.111,-7232.0576,-7238.9683,-7300.2295,-7324.3853,-7303.827,-7333.2554,-7333.039,-7289.6523,-7289.8594,-7335.7188,-7328.1123,-7272.4297,-7301.5,-7334.26,-7316.263,-7289.3906,-7233.5146,-7256.836,-7275.0356,-7198.279,-7209.776,-7251.4487,-7229.112,-7244.9087,-7265.7905,-7253.7295,-7267.113,-7298.247,-7301.3037,-7272.566,-7273.839,-7271.2466,-7213.1606,-7219.5854,-7275.5044,-7275.2725,-7265.1343,-7285.4893,-7339.8857,-7390.0503,-7402.0537,-7411.587,-7391.9834,-7323.925,-7276.1465,-7264.531,-7241.7485,-7228.366,-7262.6797,-7263.575,-7221.024,-7225.864,-7251.748,-7239.0195,-7235.935,-7312.648,-7407.0566,-7460.465,-7402.4976,-7256.5303,-7234.9395,-7241.821,-7207.5977,-7245.446,-7267.9204,-7281.607,-7296.959,-7290.9927,-7286.317,-7292.9194,-7318.508,-7277.292,-7241.3906,-7281.9067,-7316.5293,-7310.706,-7258.4214,-7225.6816,-7223.848,-7246.733,-7284.6675,-7316.9917,-7364.4756,-7315.2266,-7242.3955,-7343.188,-7494.0205,-7523.2446,-7440.5977,-7337.234,-7281.424,-7240.1206,-7211.8154,-7248.197,-7250.844,-7265.7734,-7361.7983,-7353.515,-7339.6978,-7338.355,-7206.985,-7178.8604,-7284.5366,-7320.9175,-7267.443,-7194.1875,-7188.601,-7223.593,-7246.396,-7303.695,-7347.972,-7332.2524,-7386.9004,-7450.475,-7374.249,-7361.0654,-7412.8276,-7306.09,-7219.653,-7186.199,-7113.0146,-7177.833,-7294.23,-7378.7207,-7427.278,-7377.4785,-7374.992,-7373.92,-7314.2417,-7274.655,-7252.055,-7306.8765,-7370.7725,-7359.526,-7302.739,-7250.3027,-7276.1284,-7278.728,-7211.1025,-7214.74,-7274.069,-7305.539,-7322.325,-7323.4365,-7309.1865,-7297.064,-7308.717,-7350.507,-7356.1655,-7331.6123,-7403.261,-7496.8394,-7395.0825,-7244.32,-7250.383,-7260.411,-7216.4014,-7218.1475,-7256.1265,-7280.8887,-7299.0933,-7297.259,-7240.4033,-7225.017,-7238.7217,-7229.3594,-7373.165,-7623.1196,-7607.6377,-7294.9233,-7132.9067,-7250.527,-7309.8833,-7217.3447,-7162.8896,-7174.3633,-7194.3564,-7289.236,-7357.9,-7320.84,-7345.7944,-7391.414,-7360.697,-7321.405,-7285.1562,-7240.343,-7234.425,-7277.0083,-7259.1406,-7188.723,-7191.8315,-7247.7334,-7285.881,-7276.223,-7249.8447,-7296.447,-7361.565,-7335.078,-7310.1304,-7370.5864
-7415.6064,-7378.038,-7311.912,-7277.592,-7279.025,-7287.967,-7266.3896,-7252.6763,-7283.859,-7290.829,-7270.815,-7252.133,-7243.507,-7253.6265,-7273.014,-7318.206,-7370.478,-7421.35,-7429.1074,-7398.0464,-7367.2417,-7276.896,-7250.0864,-7287.9883,-7246.9463,-7231.436,-7247.3384,-7277.0195,-7323.4487,-7336.397,-7352.398,-7307.9043,-7265.091,-7288.3657,-7262.933,-7289.5215,-7372.039,-7355.8877,-7286.724,-7259.7153,-7298.758,-7312.7275,-7281.6206,-7291.9785,-7315.7656,-7355.431,-7406.045,-7402.42,-7348.5977,-7287.402,-7283.013,-7302.0635,-7288.5864,-7286.695,-7303.51,-7328.8164,-7349.9595,-7345.1562,-7353.1807,-7367.828,-7348.075,-7327.3257,-7307.1875,-7286.477,-7283.344,-7295.067,-7330.373,-7342.3623,-7324.2915,-7296.5146,-7281.1274,-7300.425,-7303.038,-7314.2124,-7327.796,-7308.8965,-7319.306,-7386.891,-7423.0513,-7356.9233,-7331.804,-7332.9404,-7285.8115,-7316.488,-7315.2734,-7277.1123,-7321.654,-7310.208,-7288.4697,-7324.5054,-7316.238,-7299.1387,-7289.1567,-7293.169,-7364.428,-7424.0977,-7394.279,-7343.3066,-7336.7446,-7326.825,-7302.229,-7298.7334,-7310.718,-7327.656,-7329.0737,-7329.7676,-7329.1826,-7316.282,-7300.3374,-7253.963,-7233.6606,-7275.39,-7310.7637,-7356.479,-7409.5938,-7360.6396,-7275.2593,-7289.7593,-7317.345,-7329.9,-7375.2744,-7382.461,-7339.338,-7316.4673,-7345.136,-7358.9956,-7339.685,-7338.7886,-7326.3174,-7306.975,-7293.461,-7282.1665,-7310.814,-7350.3003,-7378.8335,-7385.371,-7366.703,-7372.844,-7395.59,-7399.6733,-7348.148,-7291.578,-7295.1724,-7311.54,-7340.2812,-7319.4155,-7273.147,-7318.5493,-7359.782,-7384.9624,-7402.3247,-7344.315,-7306.715,-7338.446,-7354.356,-7377.191,-7500.3574,-7542.3984,-7412.0234,-7361.33,-7378.767,-7320.1787,-7265.362,-7298.114,-7321.864,-7300.1147,-7336.74,-7349.0664,-7348.1597,-7381.312,-7338.301,-7299.325,-7314.639,-7335.723,-7360.1084,-7369.53,-7328.365,-7251.944,-7250.174,-7337.5254,-7433.166,-7433.0093,-7373.007,-7375.903,-7374.3257,-7369.4243,-7395.514,-7363.903,-7301.8857,-7307.439,-7345.784,-7332.939,-7297.62,-7279.7227,-7304.791,-7346.875,-7336.3833,-7316.0054,-7295.721,-7283.4043,-7329.945,-7358.3164,-7337.423,-7330.303,-7352.3193,-7413.8447,-7444.8267,-7410.604,-7404.5415,-7385.954,-7345.884,-7365.054,-7378.729,-7342.338,-7322.459,-7353.555,-7381.877,-7388.049,-7371.979,-7347.5576,-7353.004,-7338.699,-7319.9077,-7352.713,-7445.2954,-7508.2017,-7445.5063,-7377.7837,-7409.6396,-7521.485,-7523.6577,-7389.982,-7349.047,-7338.6855,-7336.688,-7321.1074,-7245.422,-7257.216,-7276.974,-7295.01,-7324.3477,-7312.486,-7332.8623,-7328.738,-7335.902,-7356.7974,-7345.1777,-7354.4604,-7343.559,-7346.435,-7380.989,-7440.0786,-7481.739,-7411.8726,-7335.984,-7318.414,-7336.8555,-7353.078,-7332.2305,-7381.067,-7416.533,-7373.8022,-7392.416,-7388.6924,-7367.911,-7407.6377,-7399.869,-7371.758,-7340.3433,-7298.617,-7295.4214,-7283.3423,-7285.5723,-7309.775,-7308.6284,-7322.1104,-7338.9897,-7340.301,-7344.7314,-7341.3525,-7337.4453,-7326.064,-7319.9004,-7345.6167,-7379.0864,-7403.7495,-7382.406,-7317.612,-7308.3965,-7368.4165,-7385.867,-7343.5703,-7360.053,-7411.822,-7393.603,-7365.488,-7370.484,-7358.3164,-7343.808,-7361.241,-7376.2407,-7350.0854,-7329.5825,-7364.9204,-7385.6475,-7361.6626,-7361.0503,-7361.3213,-7356.9424,-7368.7183,-7360.5864,-7355.938,-7350.405,-7343.06,-7349.3955,-7335.453,-7326.1797,-7326.967,-7331.749,-7348.8047,-7355.493,-7349.6714,-7334.953,-7339.245,-7354.362,-7358.057,-7364.462,-7360.781,-7350.091,-7333.7764,-7325.7876,-7335.72,-7340.95,-7349.5796,-7359.531,-7365.414,-7355.3354,-7342.505,-7383.974,-7455.016,-7474.418,-7420.536,-7341.0947,-7308.436,-7360.641,-7405.9507,-7375.424,-7358.961,-7374.746,-7378.4956,-7359.0664,-7335.712,-7355.5605,-7367.478,-7356.7476,-7371.995,-7368.199,-7348.6484,-7354.18,-7353.622,-7344.848,-7347.7207,-7352.4263,-7351.8174,-7344.459,-7338.772,-7333.0,-7333.466,-7352.7695,-7361.016,-7358.2476,-7368.0454,-7374.0693,-7374.8433,-7392.759,-7409.4297,-7397.469,-7388.2383,-7412.373,-7438.4556,-7399.355,-7341.2217,-7350.091,-7362.0137,-7369.203,-7388.5625,-7381.2124,-7379.4736,-7375.402,-7377.81,-7390.8467,-7390.127,-7406.4,-7411.559,-7406.624,-7412.326,-7410.0776,-7407.222,-7395.7104,-7382.8936,-7376.45,-7382.533,-7393.519,-7386.238,-7383.948,-7389.0464,-7394.4546,-7400.1245,-7398.7026,-7402.373,-7403.5264,-7401.422,-7405.3047,-7403.8105,-7400.35,-7399.218,-7393.383,-7390.112,-7395.7993,-7402.804,-7402.0547,-7392.962,-7387.9014,-7392.6646,-7407.747,-7421.256,-7406.396,-7385.0312,-7382.7573,-7385.872,-7394.4106,-7395.16,-7393.6943,-7400.6816,-7391.4263,-7390.396,-7401.535,-7395.726,-7391.628,-7401.3423,-7409.1567,-7398.307,-7390.822,-7400.555,-7415.1646,-7426.2935,-7412.1436,-7404.17,-7425.13,-7444.3345,-7453.887,-7447.002,-7438.015,-7436.1343,-7426.7217,-7429.394,-7441.147,-7435.3403,-7424.695,-7417.9756,-7414.2134,-7419.341,-7423.713,-7430.9033,-7442.5195,-7450.237,-7453.9927,-7444.6973,-7437.013,-7446.1104,-7454.332,-7453.6665,-7459.297,-7469.669,-7470.851,-7476.6436,-7483.513,-7480.483,-7476.296,-7476.865,-7480.4863,-7471.971,-7469.8057,-7480.618,-7478.3545,-7471.556,-7469.7856,-7473.509,-7476.161,-7476.521,-7480.639,-7481.8926,-7482.642,-7480.717,-7479.7026,-7480.5063,-7472.5654,-7462.289,-7456.761,-7458.616,-7455.8164,-7447.7617,-7451.737,-7457.457,-7456.731,-7455.1084,-7457.2417,-7459.71,-7450.4766,-7444.0186,-7455.04,-7466.562,-7467.5933,-7463.929,-7459.38,-7460.113,-7462.894,-7452.0005,-7444.494,-7451.476,-7451.248,-7450.6562,-7448.575,-7437.9004,-7436.172,-7435.5796,-7430.848,-7433.5566,-7436.7573,-7430.3096,-7428.364,-7439.806,-7439.1836,-7427.963,-7420.468,-7410.165,-7406.3936,-7402.807,-7398.766,-7405.856,-7409.366,-7408.2065,-7406.1675,-7406.824,-7406.556,-7399.0557,-7399.769,-7405.019,-7408.6763,-7403.2876,-7394.0547,-7400.3027,-7405.129,-7408.852,-7408.748,-7399.849,-7398.652,-7390.1675,-7379.6465,-7374.6504,-7368.475,-7367.189,-7358.4087,-7339.481,-7323.503,-7327.189,-7331.331,-7323.076,-7328.7847,-7323.6665,-7306.675,-7295.8213,-7277.1265,-7263.7207,-7254.176,-7249.088,-7249.728,-7241.363,-7235.536,-7236.377,-7228.307,-7212.688,-7210.3857,-7208.707,-7200.003,-7206.4395,-7206.734,-7197.1753,-7194.9854,-7195.5054,-7200.1187,-7198.175,-7191.8086,-7181.424,-7174.4097,-7185.111,-7188.8496,-7186.9263,-7183.0303,-7181.2163,-7191.8013,-7186.221,-7178.3926,-7178.219,-7172.17,-7173.961,-7172.0063,-7168.776,-7168.407,-7171.474,-7190.044,-7197.122,-7187.1885,-7174.913,-7172.2866,-7188.6465,-7201.1934,-7199.935,-7194.1597,-7196.846,-7191.5425,-7174.3823,-7179.8994,-7181.9087,-7168.2246,-7167.679,-7170.1167,-7171.595,-7181.5435,-7186.4287,-7171.5244,-7153.3853,-7144.591,-7145.9614,-7160.2026,-7170.7954,-7167.039,-7150.5283,-7138.282,-7148.7915,-7175.139,-7202.4517,-7209.6865,-7202.895,-7186.8354,-7163.72,-7165.7446,-7164.31,-7154.977,-7159.213,-7150.384,-7158.005,-7170.5254,-7167.131,-7166.878,-7151.2583,-7143.7715,-7137.784,-7142.89,-7185.305,-7202.883,-7183.2295,-7156.1226,-7159.7227,-7181.096,-7168.1714,-7157.825,-7167.6943,-7191.06,-7219.6377,-7229.126,-7224.622,-7213.612,-7210.067,-7201.56,-7200.1724,-7212.851,-7188.7417,-7164.974,-7175.262,-7194.5464,-7217.278,-7220.02,-7207.9116,-7189.938,-7176.1304,-7199.0977,-7220.7974,-7210.6147,-7199.886,-7199.891,-7207.998,-7205.994,-7185.9556,-7185.9897,-7205.7236,-7214.33,-7230.1016,-7254.8267,-7257.648,-7249.28,-7251.601,-7269.7314,-7331.7964,-7400.6265,-7382.92,-7345.9624,-7337.317,-7283.6353,-7264.076,-7294.907,-7263.2373,-7205.2295,-7185.7275,-7201.7603,-7222.381,-7233.0776,-7229.9834,-7205.3687,-7211.638,-7240.488,-7250.9106,-7260.356,-7258.1865,-7256.2373,-7283.1426,-7333.671,-7352.82,-7323.85,-7270.6147,-7155.118,-7123.7837,-7214.8115,-7225.7974,-7242.456,-7285.1777,-7265.8154,-7226.801,-7170.088,-7187.086,-7214.9043,-7179.7144,-7181.123,-7158.8633,-7118.3613,-7131.7285,-7163.2964,-7186.1587,-7214.82,-7259.429,-7281.431,-7308.914,-7321.8325,-7239.1367,-7167.109,-7173.2007,-7199.573,-7239.3105,-7264.5024,-7253.9966,-7218.696,-7215.254,-7299.181,-7401.873,-7402.4614,-7258.5815,-7173.7305,-7208.033,-7153.563,-7133.446,-7184.974,-7172.5674,-7210.3223,-7230.2847,-7196.7124,-7216.4136,-7247.8955,-7286.4336,-7262.6724,-7191.4946,-7168.5913,-7126.7856,-7109.3604,-7156.7266,-7178.8823,-7181.4966,-7183.326,-7162.684,-7153.5083,-7179.793,-7232.0933,-7282.6133,-7278.751,-7274.098,-7300.428,-7301.0444,-7315.1826,-7307.2837,-7244.2026,-7238.426,-7260.997,-7234.9746,-7225.2275,-7236.5938,-7201.105,-7161.928,-7161.2524,-7171.422,-7196.598,-7235.8955,-7316.2705,-7387.872,-7331.523,-7219.579,-7166.7183,-7183.2886,-7226.195,-7236.3667,-7239.9326,-7274.0474,-7299.948,-7293.4663,-7267.3223,-7203.6934,-7161.53,-7184.4917,-7170.264,-7180.943,-7265.373,-7306.5693,-7317.4873,-7279.9375,-7208.8496,-7186.0024,-7175.5547,-7203.5063,-7244.139,-7238.126,-7237.8325,-7223.6147,-7201.3677,-7210.0205,-7209.0776,-7205.3096,-7226.627,-7235.283,-7214.472,-7223.1885,-7256.2695,-7241.4146,-7215.029,-7233.8354,-7241.8867,-7224.8506,-7260.5044,-7329.225,-7353.5117,-7318.8047,-7242.232,-7212.889,-7260.097,-7315.619,-7394.0957,-7412.6426,-7327.054,-7292.094,-7274.575,-7229.0737,-7192.035,-7169.9263,-7265.971,-7384.773,-7390.9805,-7335.324,-7270.85,-7257.919,-7243.7183,-7203.8,-7211.524,-7229.7876,-7225.5293,-7272.2725,-7342.7075,-7278.7695,-7190.178,-7236.202,-7262.2646,-7207.314,-7189.135,-7240.1836,-7301.0522,-7341.6973,-7368.2446,-7340.823,-7268.69,-7229.111,-7234.779,-7238.4795,-7226.9014,-7229.642,-7249.279,-7261.361,-7271.9834,-7274.6914,-7261.093,-7268.2974,-7281.0415,-7302.4175,-7350.963,-7345.14,-7290.832,-7249.634,-7240.464,-7283.7617,-7302.603,-7286.157,-7311.276,-7335.64,-7345.8105,-7372.225,-7379.5986,-7360.732,-7341.464,-7319.682,-7282.1206,-7270.043,-7274.3203,-7233.4365,-7219.6797,-7247.2773,-7260.1904,-7293.493,-7364.967,-7425.8784,-7371.87,-7295.8076,-7321.3115,-7331.7593,-7315.274,-7300.269,-7272.603,-7262.7007,-7259.89,-7279.7173,-7314.9365,-7346.4834,-7382.9907,-7413.4995,-7414.162,-7357.1235,-7301.772,-7312.2188,-7334.5137,-7324.863,-7297.028,-7272.234,-7281.839,-7306.2773,-7314.4077,-7331.9805,-7354.1235,-7351.783,-7307.826,-7296.1846,-7410.3755,-7495.3623,-7440.3823,-7367.12,-7332.0146,-7342.8496,-7333.8364,-7281.5767,-7297.175,-7336.876,-7350.6255,-7348.0767,-7317.6787,-7309.991,-7307.2407,-7309.32,-7358.2354,-7427.4854,-7444.9434,-7381.329,-7330.4053,-7315.714,-7319.6885,-7311.9746,-7290.333,-7347.4546,-7357.4727,-7328.6045,-7382.1484,-7381.0225,-7384.1313,-7427.34,-7448.1416,-7484.868,-7474.8003,-7461.643,-7447.673,-7383.7773,-7379.2725,-7435.6196,-7410.076,-7287.552,-7246.517,-7306.707,-7330.6763,-7317.286,-7342.386,-7391.598,-7390.4077,-7358.6133,-7322.139,-7310.1304,-7353.4355,-7395.1045,-7397.76,-7400.3335,-7435.843,-7412.5723,-7347.6675,-7351.192,-7353.9863,-7353.6772,-7393.1934,-7416.1963,-7425.8003,-7443.734,-7423.5664,-7367.393,-7344.5693,-7358.174,-7401.84,-7460.46,-7464.3237,-7368.6895,-7256.1904,-7283.731,-7355.679,-7339.3975,-7352.567,-7415.595,-7447.6978,-7442.42,-7430.3027,-7424.43,-7399.258,-7400.0576,-7420.777,-7417.2837,-7434.2744,-7406.8843,-7339.606,-7362.0146,-7426.0127,-7454.4976,-7477.4272,-7511.88,-7459.507,-7343.509,-7414.43,-7553.2554,-7455.722,-7325.609,-7379.364,-7451.248,-7424.164,-7381.504,-7407.307,-7398.0645,-7317.501,-7322.29,-7364.0054,-7361.069,-7366.6035,-7363.5835,-7364.7,-7353.895,-7323.46,-7366.5474,-7456.699,-7497.0625,-7477.4033,-7426.827,-7388.892,-7410.11,-7448.5723,-7456.894,-7492.6143,-7587.7197,-7693.948,-7690.453,-7545.0747,-7440.154,-7436.317,-7384.7573,-7314.2954,-7322.7305,-7327.994,-7341.8887,-7378.4683,-7371.7163,-7374.193,-7384.9165,-7383.055,-7391.4375,-7400.951,-7442.0903,-7509.2485,-7485.709,-7380.789,-7371.5166,-7426.93,-7435.5703,-7435.347,-7427.3105,-7382.3433,-7353.142,-7394.3555,-7416.795,-7401.138,-7405.5166,-7409.6904,-7475.5024,-7549.8184,-7510.935,-7417.851,-7397.4917,-7478.7383,-7505.4414,-7467.1196,-7444.3228,-7403.0005,-7407.089,-7440.4707,-7412.5586,-7334.8037,-7364.6064,-7559.073,-7611.6523,-7540.485,-7525.9175,-7437.1787,-7377.7046,-7381.8184,-7351.248,-7358.631,-7345.5254,-7311.5815,-7331.038,-7356.4614,-7364.834,-7371.1245,-7402.0244,-7460.099,-7489.9165,-7496.2915,-7517.7295,-7496.369,-7427.7085,-7405.0596,-7418.119,-7417.413,-7449.656,-7505.728,-7540.3643,-7543.6104,-7466.732,-7420.7104,-7464.211,-7454.5483,-7436.415,-7463.107,-7489.22,-7499.358,-7467.209,-7418.134,-7388.2466,-7391.429,-7382.2554,-7368.0913,-7390.881,-7405.512,-7420.075,-7409.209,-7390.516,-7416.227,-7405.2646,-7378.159,-7390.5874,-7396.3857,-7378.224,-7382.9067,-7472.3745,-7604.2466,-7631.796,-7519.6724,-7433.039
-7433.81,-7444.214,-7492.3164,-7532.4507,-7480.7886,-7426.476,-7425.473,-7425.133,-7387.5664,-7368.095,-7382.453,-7361.877,-7369.7485,-7401.057,-7394.3535,-7403.1763,-7415.8486,-7446.0337,-7456.769,-7421.1743,-7431.6245,-7445.696,-7444.8335,-7465.6196,-7497.86,-7513.998,-7464.5654,-7424.564,-7442.4287,-7461.713,-7466.902,-7441.2144,-7406.349,-7435.533,-7512.5547,-7506.996,-7419.327,-7384.202,-7383.795,-7379.2354,-7410.9663,-7450.102,-7465.896,-7457.389,-7440.491,-7447.7437,-7490.4604,-7539.916,-7511.385,-7448.5522,-7517.98,-7648.679,-7628.7954,-7535.7666,-7506.235,-7450.813,-7411.0195,-7422.4517,-7399.9736,-7430.214,-7477.5605,-7455.286,-7438.436,-7440.105,-7442.5117,-7446.6885,-7475.9604,-7486.291,-7446.624,-7449.7236,-7483.17,-7488.7812,-7457.2803,-7419.511,-7425.3574,-7432.8037,-7450.3823,-7487.5117,-7483.04,-7465.6255,-7468.4277,-7513.4316,-7563.822,-7513.5,-7428.624,-7422.547,-7480.474,-7505.3486,-7449.0957,-7414.7915,-7408.676,-7401.008,-7426.843,-7428.7446,-7445.361,-7479.3457,-7492.3594,-7546.603,-7532.9614,-7465.359,-7483.883,-7511.0522,-7513.6274,-7542.559,-7611.9253,-7661.93,-7604.0327,-7466.123,-7392.822,-7486.7227,-7578.2637,-7534.5864,-7478.387,-7442.992,-7425.909,-7445.673,-7470.6025,-7506.74,-7523.8667,-7517.093,-7522.275,-7504.368,-7457.166,-7449.386,-7487.04,-7478.3945,-7483.202,-7599.083,-7639.6455,-7531.4595,-7461.811,-7451.611,-7453.66,-7493.113,-7544.861,-7571.1694,-7509.074,-7460.9126,-7551.208,-7587.977,-7562.5312,-7561.8403,-7503.3438,-7481.42,-7503.8057,-7480.879,-7430.6826,-7418.8184,-7495.275,-7584.167,-7653.2837,-7647.68,-7546.753,-7510.661,-7556.3457,-7558.7207,-7510.7725,-7495.0703,-7493.427,-7495.0693,-7535.5747,-7534.933,-7495.1284,-7487.044,-7479.105,-7468.8936,-7482.4463,-7482.9272,-7463.3125,-7473.058,-7487.7686,-7460.0264,-7460.806,-7539.1772,-7620.3555,-7658.3545,-7599.965,-7481.2246,-7479.1694,-7501.906,-7443.886,-7450.3276,-7505.3223,-7532.911,-7528.561,-7500.194,-7501.368,-7529.8213,-7565.0254,-7572.1543,-7584.937,-7622.6743,-7568.7764,-7477.402,-7455.8164,-7478.587,-7482.5415,-7435.7637,-7427.242,-7466.167,-7496.583,-7523.318,-7524.142,-7513.8027,-7520.201,-7532.853,-7534.9844,-7548.703,-7568.7686,-7488.4297,-7403.308,-7502.8237,-7605.2646,-7558.0435,-7502.6245,-7486.506,-7493.4854,-7511.7163,-7535.1226,-7551.557,-7503.192,-7494.057,-7555.733,-7584.538,-7589.6934,-7558.9644,-7532.9224,-7531.6855,-7498.037,-7455.8486,-7413.402,-7408.2886,-7435.436,-7438.815,-7455.3584,-7488.5244,-7521.279,-7534.9146,-7528.28,-7530.441,-7509.463,-7506.1465,-7536.792,-7507.165,-7463.4883,-7468.9614,-7473.2817,-7476.4673,-7487.407,-7484.8135,-7489.195,-7497.826,-7498.3633,-7522.855,-7532.687,-7506.177,-7518.1978,-7545.8267,-7540.6123,-7518.887,-7505.477,-7550.9224,-7603.032,-7612.8867,-7636.745,-7624.9536,-7596.5967,-7653.0845,-7642.901,-7506.766,-7459.816,-7486.7344,-7486.6846,-7537.927,-7602.035,-7623.6353,-7627.8145,-7554.8438,-7462.741,-7491.264,-7539.7534,-7509.9937,-7495.4165,-7498.728,-7492.4307,-7502.109,-7486.582,-7481.969,-7548.3003,-7593.47,-7567.6406,-7555.9023,-7549.0073,-7520.9126,-7539.5303,-7516.173,-7439.2197,-7459.6,-7524.6426,-7557.9053,-7544.471,-7516.5986,-7532.617,-7546.7095,-7579.051,-7598.5635,-7543.766,-7514.954,-7560.947,-7608.591,-7615.6313,-7609.758,-7568.4883,-7531.825,-7562.075,-7554.1387,-7501.749,-7520.9116,-7583.7217,-7586.6797,-7559.161,-7533.116,-7494.578,-7506.0063,-7527.955,-7521.2866,-7513.294,-7494.19,-7509.618,-7536.8896,-7534.79,-7536.28,-7557.9575,-7578.069,-7573.5034,-7595.3,-7623.095,-7618.6177,-7619.4263,-7613.521,-7606.388,-7602.812,-7624.672,-7655.995,-7601.452,-7527.141,-7530.0537,-7567.148,-7592.6304,-7591.026,-7555.2676,-7520.2573,-7543.005,-7583.0146,-7571.871,-7568.071,-7596.435,-7594.397,-7569.5957,-7529.2456,-7492.266,-7511.639,-7546.585,-7536.712,-7498.2373,-7493.428,-7505.751,-7526.8755,-7580.457,-7570.649,-7532.5005,-7545.5537,-7606.2407,-7738.737,-7790.6675,-7710.896,-7672.5444,-7650.6396,-7509.116,-7365.29,-7422.999,-7554.3086,-7582.361,-7557.423,-7526.7285,-7518.146,-7524.7476,-7527.308,-7549.2144,-7544.4937,-7519.67,-7571.909,-7636.949,-7584.4697,-7497.5137,-7489.199,-7498.9287,-7491.5996,-7519.8125,-7575.546,-7620.6797,-7675.528,-7690.8237,-7593.188,-7531.0996,-7598.611,-7652.2354,-7618.0522,-7557.3613,-7541.062,-7536.2773,-7517.1284,-7534.8735,-7533.1147,-7492.735,-7506.099,-7525.1104,-7506.9194,-7534.961,-7561.4194,-7563.8467,-7609.248,-7624.018,-7582.509,-7572.8154,-7609.911,-7583.852,-7508.2207,-7532.3765,-7583.0884,-7594.506,-7639.5166,-7716.143,-7746.3823,-7634.474,-7526.169,-7527.879,-7517.988,-7576.6177,-7673.9355,-7656.8477,-7627.581,-7608.167,-7547.588,-7520.584,-7542.729,-7536.264,-7533.722,-7570.5503,-7554.6562,-7521.4844,-7501.266,-7503.3096,-7559.855,-7603.661,-7682.3154,-7717.2544,-7626.8657,-7577.3164,-7592.02,-7599.202,-7569.3857,-7557.8633,-7612.2324,-7695.4663,-7753.1416,-7701.6064,-7597.6963,-7519.378,-7508.393,-7548.022,-7544.1846,-7558.624,-7563.048,-7527.983,-7549.454,-7591.521,-7610.1104,-7600.6323,-7650.0845,-7735.1997,-7716.49,-7633.365,-7527.4995,-7510.3877,-7579.2964,-7628.665,-7684.4233,-7629.4126,-7563.444,-7616.931,-7611.952,-7568.5996,-7576.2183,-7607.3774,-7581.1,-7502.6143,-7482.7593,-7499.859,-7543.553,-7591.6436,-7582.2485,-7577.8013,-7619.0586,-7640.6426,-7619.8945,-7623.3604,-7640.5293,-7631.2383,-7639.6006,-7675.5674,-7668.188,-7617.1094,-7650.4346,-7746.093,-7727.884,-7605.5737,-7548.066,-7539.9956,-7492.9795,-7508.7007,-7553.099,-7562.1963,-7590.2515,-7566.6455,-7543.213,-7595.4116,-7646.901,-7632.752,-7589.899,-7604.988,-7605.187,-7588.9575,-7597.8574,-7585.7207,-7591.6646,-7572.434,-7528.648,-7543.1504,-7580.5864,-7595.18,-7595.5093,-7599.339,-7591.629,-7614.0054,-7689.3086,-7724.9443,-7659.636,-7578.2344,-7586.6323,-7612.3003,-7607.1685,-7589.358,-7594.378,-7645.865,-7638.7437,-7646.018,-7710.615,-7692.959,-7627.418,-7585.0596,-7587.816,-7597.2446,-7566.035,-7536.534,-7542.1,-7565.952,-7582.8467,-7623.811,-7672.765,-7692.374,-7657.765,-7588.7856,-7580.333,-7579.2207,-7582.5645,-7617.601,-7615.723,-7650.294,-7683.625,-7653.9014,-7655.8647,-7691.084,-7718.9927,-7712.001,-7680.52,-7623.9404,-7532.322,-7509.253,-7587.823,-7627.7666,-7602.979,-7619.1616,-7624.399,-7608.179,-7616.905,-7600.586,-7618.6523,-7667.775,-7670.243,-7634.588,-7598.6484,-7610.5083,-7634.2256,-7643.2334,-7637.8066,-7618.5767,-7625.277,-7638.8896,-7650.8228,-7672.3145,-7694.001,-7697.982,-7662.3813,-7663.5757,-7743.765,-7767.783,-7687.9287,-7629.427,-7623.683,-7633.2417,-7651.102,-7662.764,-7656.568,-7603.2407,-7555.068,-7583.9775,-7629.627,-7624.9365,-7597.3057,-7595.4233,-7600.1265,-7602.0454,-7606.684,-7606.5347,-7626.566,-7647.585,-7685.1807,-7730.0654,-7681.6577,-7641.4194,-7734.6475,-7863.7607,-7904.49,-7836.046,-7767.723,-7717.8315,-7644.084,-7598.64,-7574.654,-7596.242,-7626.9546,-7609.8457,-7607.761,-7589.516,-7593.2915,-7621.363,-7608.753,-7617.074,-7603.843,-7588.8154,-7609.317,-7626.306,-7655.252,-7640.551,-7626.417,-7659.8423,-7683.0693,-7684.4727,-7676.945,-7696.6333,-7703.5737,-7678.1553,-7658.5376,-7690.44,-7771.6313,-7737.4287,-7644.2305,-7670.0215,-7691.1387,-7634.6646,-7617.927,-7680.2363,-7741.0186,-7737.5767,-7685.2197,-7625.3125,-7609.4863,-7622.5166,-7637.3633,-7669.537,-7662.9404,-7616.6562,-7616.909,-7634.1245,-7630.4873,-7643.9062,-7652.72,-7642.945,-7643.794,-7657.389,-7674.2866,-7689.5103,-7700.471,-7682.346,-7658.1343,-7692.8896,-7722.325,-7679.6885,-7657.44,-7659.0303,-7627.8765,-7646.976,-7713.077,-7719.531,-7667.368,-7643.456,-7658.9775,-7686.904,-7747.636,-7748.4067,-7667.714,-7616.0903,-7604.109,-7632.6978,-7650.0586,-7618.262,-7612.892,-7645.0635,-7679.215,-7723.4043,-7749.1797,-7740.245,-7770.6284,-7766.4595,-7687.4727,-7660.821,-7652.5405,-7636.675,-7624.5522,-7578.543,-7538.177,-7544.0933,-7590.052,-7634.2173,-7645.9062,-7629.7812,-7683.547,-7805.5723,-7838.9897,-7789.9995,-7686.194,-7578.6,-7594.5977,-7678.441,-7706.852,-7690.7266,-7699.5283,-7712.868,-7729.465,-7741.43,-7720.2207,-7733.896,-7713.8916,-7650.801,-7620.164,-7544.0996,-7491.7075,-7543.4697,-7637.5186,-7686.98,-7669.3735,-7669.96,-7664.728,-7663.0273,-7702.364,-7695.742,-7626.66,-7580.4463,-7616.31,-7651.8247,-7681.7593,-7774.768,-7856.7207,-7847.2925,-7731.8,-7654.2085,-7669.7217,-7639.942,-7608.148,-7622.3906,-7625.595,-7633.152,-7644.7,-7644.024,-7651.335,-7649.9683,-7625.912,-7615.6553,-7615.0244,-7613.9546,-7622.7266,-7645.372,-7662.5044,-7655.141,-7713.8286,-7803.361,-7769.1616,-7701.197,-7712.028,-7735.67,-7716.013,-7697.2793,-7705.135,-7679.6367,-7667.9404,-7675.26,-7644.2095,-7652.896,-7649.688,-7610.3286,-7611.18,-7596.8115,-7586.481,-7610.082,-7624.9355,-7619.537,-7611.719,-7639.777,-7686.826,-7703.5825,-7701.1104,-7737.319,-7810.11,-7879.9717,-7880.8643,-7790.6255,-7710.355,-7659.444,-7623.036,-7602.522,-7585.93,-7623.053,-7666.693,-7639.7886,-7598.2344,-7611.8726,-7646.414,-7652.7354,-7673.575,-7720.948,-7732.4316,-7682.4473,-7631.907,-7630.193,-7637.132,-7621.799,-7631.589,-7713.175,-7823.8115,-7878.855,-7819.7583,-7696.059,-7641.897,-7639.8765,-7608.5547,-7628.5664,-7684.747,-7682.202,-7709.4624,-7731.357,-7681.0,-7680.3145,-7707.892,-7723.121,-7751.2876,-7739.039,-7722.4844,-7721.4478,-7661.654,-7628.6963,-7716.1523,-7792.9365,-7769.5566,-7703.331,-7654.659,-7641.847,-7635.089,-7629.769,-7638.485,-7664.5054,-7691.8237,-7674.296,-7642.6084,-7640.9067,-7634.3433,-7620.9526,-7637.5024,-7705.402,-7791.097,-7807.3374,-7726.029,-7633.4854,-7672.9854,-7758.2104,-7717.4434,-7694.9097,-7746.132,-7768.031,-7781.1167,-7772.5396,-7739.579,-7695.762,-7677.3853,-7715.452,-7764.849,-7812.1055,-7769.7515,-7625.3853,-7553.629,-7583.837,-7626.4795,-7661.753,-7677.576,-7664.7197,-7659.01,-7669.0024,-7677.869,-7693.267,-7696.4087,-7673.2837,-7678.4644,-7744.8135,-7808.5786,-7782.415,-7709.2393,-7697.776,-7695.0444,-7683.5483,-7744.1367,-7763.7676,-7677.8096,-7642.2295,-7686.6753,-7688.4897,-7651.8335,-7661.116,-7682.4487,-7693.959,-7744.9224,-7800.288,-7813.153,-7747.4004,-7623.3013,-7608.6167,-7668.54,-7634.1353,-7612.8467,-7654.8306,-7659.6177,-7673.0903,-7691.995,-7674.9995,-7674.6494,-7679.832,-7699.7725,-7734.701,-7701.924,-7669.512,-7692.592,-7692.878,-7679.676,-7651.2896,-7623.794,-7640.2856,-7638.0596,-7619.1616,-7633.2466,-7658.05,-7668.9106,-7691.6343,-7737.647,-7756.746,-7744.827,-7784.5005,-7879.229,-7894.329,-7821.1343,-7750.046,-7681.555,-7617.5234,-7618.569,-7682.1704,-7673.5884,-7650.302,-7718.5566,-7750.754,-7706.2534,-7688.424,-7775.6343,-7854.9277,-7861.4736,-7844.808,-7739.153,-7633.1094,-7593.5864,-7592.4937,-7658.945,-7704.733,-7715.7173,-7723.8184,-7679.4507,-7640.344,-7661.648,-7657.535,-7631.7354,-7648.014,-7657.1436,-7666.613,-7670.911,-7641.159,-7659.07,-7720.305,-7732.2246,-7686.4614,-7663.519,-7699.9683,-7743.246,-7750.0493,-7715.513,-7680.5503,-7704.5073,-7795.453,-7866.238,-7885.0063,-7912.7104,-7853.551,-7701.1553,-7658.355,-7667.917,-7629.5835,-7670.3994,-7743.335,-7714.7554,-7657.2837,-7649.776,-7659.6025,-7672.7837,-7688.5176,-7687.1255,-7699.054,-7708.4326,-7663.477,-7611.0615,-7617.8506,-7656.2773,-7662.67,-7668.0083,-7676.688,-7681.9595,-7744.6157,-7818.556,-7836.7534,-7766.886,-7685.9976,-7714.354,-7723.805,-7677.145,-7674.4507,-7683.248,-7725.1147,-7735.4717,-7648.177,-7638.7183,-7703.0024,-7712.5,-7694.343,-7649.871,-7644.077,-7684.8394,-7672.3496,-7669.6763,-7685.4077,-7677.074,-7690.189,-7722.3633,-7725.7397,-7686.0737,-7695.098,-7781.163,-7842.6787,-7803.1646,-7704.1147,-7682.907,-7752.902,-7812.5083,-7762.703,-7675.93,-7711.578,-7740.7817,-7702.3506,-7700.466,-7694.0264,-7684.018,-7677.466,-7687.7886,-7714.313,-7697.928,-7725.7173,-7764.3257,-7741.556,-7741.379,-7700.9995,-7655.602,-7674.0156,-7678.5303,-7701.2847,-7687.9243,-7665.8467,-7719.6074,-7720.3887,-7707.9175,-7746.318,-7781.9487,-7775.399,-7716.324,-7701.4116,-7687.7188,-7654.752,-7664.8877,-7666.7354,-7716.154,-7824.4326,-7871.8525,-7783.965,-7666.018,-7675.2573,-7710.3105,-7690.1816,-7685.7417,-7730.0225,-7769.6436,-7748.466,-7725.587,-7717.862,-7738.388,-7784.3643,-7796.853,-7770.5376,-7669.1973,-7606.9272,-7655.1064,-7656.304,-7636.491,-7653.845,-7671.9443,-7696.879,-7703.813,-7708.3833,-7719.485,-7707.3765,-7690.0757,-7705.213,-7750.3013,-7762.8203,-7752.304,-7773.724,-7776.394,-7744.4536,-7734.503,-7723.192,-7682.1025,-7650.9473,-7665.6895,-7700.6274,-7713.085,-7717.903,-7709.7207,-7699.694,-7724.2446,-7711.477,-7678.001,-7751.6616,-7823.2495,-7760.8438,-7740.3276,-7832.624,-7858.258,-7772.436,-7678.857,-7654.609,-7658.57,-7647.9897,-7666.4263,-7701.641,-7737.081,-7735.7207,-7689.5205,-7702.407,-7752.602
-7764.1133,-7741.654,-7712.2583,-7722.9453,-7745.603,-7742.599,-7730.4326,-7698.076,-7667.3164,-7672.3438,-7689.188,-7713.292,-7754.5527,-7774.946,-7772.299,-7801.55,-7796.415,-7709.0073,-7679.019,-7700.957,-7726.801,-7798.1997,-7802.6406,-7755.1597,-7761.6133,-7764.879,-7724.574,-7658.1646,-7641.9985,-7679.0723,-7698.824,-7712.8174,-7709.2007,-7703.615,-7736.269,-7759.805,-7742.731,-7720.3667,-7708.4614,-7694.4414,-7702.326,-7709.3823,-7703.757,-7714.213,-7673.0537,-7620.7007,-7664.145,-7741.32,-7759.401,-7727.2144,-7718.4907,-7729.225,-7723.605,-7708.4233,-7693.5396,-7700.3716,-7715.262,-7724.6665,-7715.479,-7697.557,-7698.936,-7705.581,-7721.683,-7729.6533,-7735.8223,-7741.5674,-7707.8667,-7681.786,-7660.5483,-7637.0493,-7701.877,-7787.413,-7780.1626,-7774.039,-7811.172,-7816.8467,-7802.888,-7778.4277,-7725.7886,-7662.848,-7629.1455,-7638.0845,-7646.5825,-7659.5605,-7685.6973,-7689.623,-7681.1597,-7674.5366,-7651.8735,-7629.673,-7643.1655,-7639.2114,-7613.164,-7629.964,-7635.4634,-7635.437,-7657.1206,-7642.6274,-7634.6206,-7643.6846,-7638.2256,-7636.906,-7625.998,-7625.151,-7641.825,-7625.6904,-7600.6704,-7612.3037,-7620.3325,-7618.9717,-7633.567,-7657.385,-7681.5684,-7662.1494,-7658.8716,-7717.0796,-7714.139,-7638.4023,-7581.218,-7572.12,-7566.3193,-7559.308,-7582.3916,-7578.7515,-7553.732,-7544.7188,-7548.737,-7547.539,-7529.828,-7542.9385,-7549.438,-7534.939,-7534.799,-7531.7114,-7553.4746,-7565.607,-7540.083,-7528.292,-7518.329,-7498.142,-7496.69,-7517.038,-7532.651,-7528.585,-7517.8545,-7517.094,-7520.14,-7523.4653,-7529.01,-7532.4297,-7544.3667,-7543.186,-7528.9033,-7537.732,-7545.8774,-7546.0835,-7545.272,-7532.033,-7525.7275,-7525.6743,-7516.6323,-7513.588,-7522.5713,-7519.3164,-7514.4985,-7512.901,-7494.392,-7483.1274,-7463.8003,-7435.9663,-7445.236,-7481.324,-7508.052,-7502.548,-7499.013,-7499.282,-7475.818,-7464.26,-7465.319,-7466.898,-7468.751,-7463.6484,-7467.177,-7483.1465,-7497.8804,-7503.1543,-7504.6206,-7492.846,-7477.277,-7479.7344,-7471.808,-7453.6387,-7443.4214,-7437.754,-7449.7803,-7474.7417,-7474.2324,-7442.1104,-7435.986,-7454.5215,-7452.8438,-7446.9995,-7444.1777,-7438.502,-7431.5425,-7433.639,-7443.485,-7445.223,-7449.705,-7442.5664,-7438.0396,-7454.0576,-7454.081,-7452.465,-7451.526,-7440.309,-7437.6,-7435.14,-7439.1323,-7447.7007,-7448.1367,-7452.7197,-7459.5527,-7462.033,-7460.4014,-7452.999,-7445.3564,-7443.8735,-7446.471,-7456.2188,-7468.0376,-7465.612,-7457.4077,-7451.9033,-7454.649,-7467.7964,-7465.1475,-7456.811,-7461.888,-7459.8228,-7455.9136,-7453.5103,-7444.547,-7443.522,-7450.4175,-7453.981,-7455.004,-7462.6226,-7465.6396,-7454.668,-7447.1543,-7439.9946,-7429.435,-7422.604,-7419.64,-7421.9204,-7420.695,-7419.618,-7425.684,-7425.397,-7417.0195,-7415.3545,-7421.4243,-7420.169,-7419.914,-7431.657,-7435.688,-7432.485,-7426.889,-7411.0483,-7400.54,-7396.759,-7396.747,-7402.786,-7402.771,-7400.971,-7394.9883,-7394.918,-7407.5215,-7407.823,-7411.844,-7414.019,-7402.4155,-7401.8823,-7401.4897,-7409.607,-7418.825,-7418.291,-7426.8374,-7412.0728,-7392.2075,-7391.7207,-7383.1636,-7381.9443,-7385.3833,-7383.9233,-7379.8667,-7375.243,-7383.122,-7384.168,-7377.016,-7374.974,-7372.897,-7374.584,-7374.1704,-7372.518,-7374.718,-7370.641,-7366.8066,-7370.244,-7365.6562,-7360.4873,-7364.059,-7363.1475,-7365.2085,-7365.8364,-7364.8877,-7374.163,-7375.7646,-7374.286,-7374.884,-7378.3936,-7393.2275,-7391.486,-7378.511,-7376.3906,-7369.5293,-7360.196,-7355.1406,-7354.228,-7356.805,-7353.2974,-7345.13,-7339.174,-7336.775,-7334.9834,-7333.89,-7332.7275,-7334.709,-7338.151,-7328.539,-7322.322,-7329.31,-7329.191,-7322.12,-7316.222,-7313.2354,-7310.1377,-7305.311,-7302.097,-7302.9263,-7302.245,-7289.9917,-7285.4233,-7296.7617,-7294.4053,-7277.2817,-7269.001,-7276.021,-7277.9385,-7266.4956,-7262.96,-7263.3506,-7266.467,-7274.5293,-7271.5728,-7273.526,-7286.08,-7295.7144,-7297.8047,-7294.715,-7296.3945,-7287.7534,-7281.526,-7297.323,-7303.527,-7294.643,-7293.241,-7302.721,-7307.7085,-7309.1787,-7312.309,-7310.044,-7316.0654,-7318.14,-7309.73,-7310.748,-7306.268,-7302.653,-7307.8916,-7305.28,-7303.833,-7298.369,-7291.1597,-7301.5024,-7309.8228,-7312.429,-7314.6816,-7306.004,-7300.0522,-7294.5933,-7290.97,-7296.844,-7292.5884,-7291.488,-7300.933,-7298.0186,-7294.9463,-7299.659,-7298.7446,-7300.5625,-7304.971,-7298.6777,-7291.0513,-7294.059,-7300.605,-7301.065,-7303.829,-7302.947,-7292.9297,-7301.117,-7310.848,-7301.6587,-7294.873,-7289.642,-7289.3047,-7293.216,-7294.0835,-7296.6626,-7292.935,-7289.4434,-7289.3325,-7287.21,-7293.7734,-7303.8496,-7300.4585,-7286.8013,-7281.631,-7284.2876,-7285.44,-7286.922,-7287.259,-7282.737,-7272.05,-7263.952,-7260.3716,-7255.739,-7252.9253,-7250.9043,-7249.8335,-7249.9746,-7248.176,-7244.342,-7243.403,-7246.6953,-7249.7466,-7253.811,-7256.33,-7251.533,-7240.9214,-7228.6074,-7219.3667,-7227.272,-7248.651,-7258.6055,-7253.469,-7237.3657,-7231.8604,-7241.4453,-7240.4473,-7243.5703,-7249.147,-7245.692,-7240.6504,-7233.345,-7235.8857,-7241.3223,-7252.354,-7264.131,-7256.403,-7249.3184,-7243.202,-7242.966,-7250.169,-7248.908,-7254.7295,-7253.4917,-7248.576,-7259.2285,-7265.234,-7276.4746,-7288.5205,-7280.858,-7272.152,-7270.982,-7270.7266,-7270.711,-7277.416,-7284.7734,-7285.56,-7295.219,-7301.6094,-7292.0103,-7285.2617,-7285.6763,-7293.4844,-7300.7397,-7302.085,-7308.309,-7311.504,-7306.732,-7296.4746,-7292.7627,-7307.6587,-7317.209,-7315.0757,-7319.096,-7330.8403,-7338.057,-7329.231,-7320.1274,-7328.849,-7345.2085,-7347.8203,-7332.119,-7319.4414,-7325.7847,-7331.627,-7330.1885,-7347.3184,-7373.5684,-7381.981,-7368.4746,-7354.3174,-7367.352,-7391.041,-7396.227,-7385.0864,-7370.0776,-7349.468,-7331.005,-7339.9595,-7358.9404,-7353.811,-7339.24,-7340.717,-7351.08,-7350.3735,-7351.272,-7383.621,-7401.188,-7360.467,-7327.244,-7330.7476,-7370.2163,-7409.0083,-7367.841,-7340.044,-7352.654,-7332.223,-7336.207,-7353.674,-7376.026,-7417.388,-7448.262,-7459.268,-7451.01,-7467.2764,-7427.4106,-7347.0674,-7363.9365,-7383.157,-7370.442,-7370.919,-7366.1606,-7354.8423,-7325.5854,-7311.4414,-7314.1367,-7319.982,-7321.2886,-7322.8164,-7352.082,-7367.6934,-7367.344,-7335.192,-7296.4766,-7353.9585,-7417.657,-7401.32,-7353.2793,-7319.309,-7337.5767,-7382.8237,-7419.431,-7428.237,-7415.4023,-7405.4414,-7395.375,-7373.165,-7317.7744,-7282.5513,-7307.384,-7349.3223,-7372.6426,-7338.3267,-7281.596,-7254.257,-7234.3945,-7237.688,-7298.0093,-7350.4697,-7311.9683,-7246.14,-7226.4785,-7219.049,-7226.304,-7245.756,-7239.003,-7239.709,-7274.088,-7303.527,-7292.328,-7260.71,-7251.4043,-7256.329,-7271.8647,-7289.622,-7285.937,-7277.038,-7254.1025,-7241.4756,-7267.526,-7275.1226,-7265.165,-7256.461,-7230.765,-7210.2803,-7224.4795,-7254.581,-7261.529,-7262.5054,-7258.203,-7241.8696,-7243.7764,-7255.1406,-7267.051,-7268.2847,-7263.441,-7278.841,-7313.3677,-7350.633,-7359.8,-7348.981,-7340.0645,-7335.6836,-7334.697,-7337.642,-7356.6523,-7365.862,-7340.68,-7301.5293,-7290.3,-7305.899,-7301.011,-7285.4937,-7278.01,-7268.053,-7268.035,-7285.3164,-7294.158,-7281.0166,-7280.2295,-7296.8955,-7301.288,-7299.946,-7300.937,-7305.116,-7312.6074,-7309.3975,-7305.1934,-7314.321,-7334.2935,-7354.949,-7350.051,-7321.0137,-7311.6353,-7354.159,-7416.1753,-7428.7676,-7394.8647,-7380.6875,-7404.0693,-7415.7983,-7384.6055,-7351.172,-7356.8843,-7387.8184,-7420.135,-7433.3975,-7422.906,-7414.079,-7414.3965,-7434.232,-7460.6484,-7445.5894,-7424.967,-7405.863,-7366.4624,-7360.197,-7363.6426,-7368.289,-7393.731,-7403.4497,-7423.267,-7442.1387,-7426.9297,-7413.9785,-7416.9473,-7430.6387,-7458.9307,-7498.061,-7524.999,-7526.4375,-7521.4023,-7526.178,-7524.694,-7514.494,-7511.306,-7478.5425,-7439.035,-7483.195,-7580.668,-7640.0493,-7609.1426,-7520.2236,-7487.655,-7497.712,-7468.272,-7442.361,-7455.6226,-7476.423,-7485.4185,-7483.5244,-7477.179,-7473.924,-7471.048,-7462.9395,-7474.01,-7500.942,-7529.4004,-7570.2285,-7589.794,-7598.1284,-7596.899,-7525.149,-7471.024,-7494.924,-7513.4717,-7528.4385,-7545.217,-7539.669,-7536.844,-7564.0063,-7595.733,-7582.171,-7563.9746,-7550.1304,-7518.875,-7526.0444,-7539.74,-7525.4863,-7531.4937,-7557.1006,-7580.6855,-7575.6587,-7549.1875,-7563.9546,-7629.1045,-7689.942,-7716.7925,-7703.5576,-7667.7515,-7683.212,-7695.566,-7648.9575,-7645.1997,-7622.5103,-7557.4556,-7558.4644,-7578.81,-7589.5566,-7592.144,-7575.361,-7571.095,-7596.03,-7640.5293,-7671.396,-7675.094,-7653.2827,-7629.103,-7606.4756,-7587.769,-7615.633,-7636.1797,-7614.6743,-7614.685,-7614.7876,-7617.0483,-7681.1655,-7724.072,-7687.9375,-7661.1055,-7647.229,-7621.5254,-7646.488,-7661.316,-7606.242,-7585.3345,-7593.4004,-7607.886,-7639.2114,-7639.5405,-7664.011,-7689.1685,-7657.185,-7617.218,-7581.9097,-7590.0044,-7654.73,-7693.6577,-7670.1943,-7647.5264,-7627.0356,-7616.6084,-7674.819,-7706.2393,-7676.104,-7663.238,-7687.431,-7710.788,-7666.1006,-7617.91,-7629.815,-7654.984,-7671.296,-7651.552,-7612.726,-7612.909,-7625.5776,-7627.4736,-7634.5093,-7624.154,-7616.9673,-7633.7295,-7660.3926,-7693.362,-7715.163,-7727.7383,-7682.1104,-7623.047,-7634.709,-7628.532,-7623.1006,-7642.923,-7658.976,-7706.1333,-7751.11,-7799.3916,-7796.0083,-7699.9624,-7630.35,-7661.905,-7720.7847,-7677.6646,-7646.422,-7666.659,-7615.0146,-7599.304,-7628.0376,-7643.594,-7667.381,-7659.602,-7646.5684,-7663.456,-7702.0845,-7703.525,-7673.1953,-7697.4287,-7703.5654,-7652.599,-7644.8057,-7653.8794,-7638.0923,-7659.6367,-7695.8374,-7712.7944,-7733.5522,-7768.302,-7839.3716,-7867.175,-7768.172,-7653.858,-7634.761,-7642.0894,-7625.596,-7631.932,-7632.8774,-7637.5576,-7668.492,-7667.935,-7651.5464,-7640.013,-7649.2173,-7682.8833,-7691.8794,-7682.461,-7682.2188,-7697.4614,-7703.0845,-7674.8896,-7646.6807,-7652.8315,-7666.776,-7667.2593,-7671.0137,-7670.909,-7682.6997,-7695.215,-7672.451,-7657.538,-7678.2,-7699.7305,-7700.4487,-7712.7827,-7726.6772,-7714.119,-7700.584,-7691.751,-7700.569,-7707.044,-7700.733,-7718.4507,-7772.1406,-7868.366,-7916.4985,-7805.8447,-7653.65,-7662.876,-7736.7275,-7748.313,-7758.245,-7705.688,-7665.577,-7708.617,-7688.8184,-7661.07,-7673.0566,-7679.69,-7693.3345,-7688.944,-7686.5015,-7688.218,-7674.773,-7673.3374,-7680.6875,-7691.892,-7677.268,-7659.8076,-7744.4233,-7836.778,-7815.7295,-7756.3735,-7719.257,-7728.4756,-7739.814,-7761.5825,-7875.445,-7953.9805,-7892.5503,-7730.8193,-7602.5264,-7646.5347,-7700.7227,-7695.6797,-7726.8843,-7721.11,-7713.1836,-7722.3794,-7721.6904,-7761.7314,-7763.611,-7731.1147,-7700.424,-7643.9233,-7647.1587,-7701.132,-7726.24,-7732.4517,-7749.141,-7758.275,-7724.4443,-7697.47,-7701.731,-7716.7754,-7771.1104,-7858.7734,-7930.017,-7953.5586,-7941.637,-7876.678,-7767.788,-7750.2764,-7766.94,-7694.728,-7672.9375,-7697.848,-7704.8276,-7728.786,-7714.371,-7718.0312,-7742.9336,-7746.47,-7774.2188,-7785.8594,-7798.4766,-7810.3867,-7770.5054,-7748.0474,-7810.5586,-7903.105,-7925.0796,-7857.078,-7758.305,-7697.883,-7682.4194,-7690.242,-7703.6772,-7707.308,-7722.7764,-7745.524,-7758.052,-7747.6553,-7706.782,-7685.6997,-7722.9688,-7757.2114,-7724.6787,-7694.363,-7704.5957,-7718.9106,-7752.313,-7771.6685,-7764.774,-7766.408,-7763.854,-7759.671,-7755.5664,-7771.99,-7785.8286,-7763.959,-7795.078,-7893.622,-7989.6104,-8006.4507,-7895.0254,-7794.293,-7791.2876,-7765.352,-7705.2964,-7685.934,-7688.5303,-7714.7065,-7733.556,-7717.7627,-7727.384,-7753.017,-7763.231,-7778.6533,-7833.1323,-7853.1157,-7813.6494,-7815.534,-7766.99,-7674.0166,-7667.835,-7702.5356,-7742.3545,-7768.0684,-7805.6294,-7872.4116,-7914.828,-7925.2627,-7900.8027,-7862.8726,-7822.7783,-7788.341,-7775.1274,-7746.7793,-7709.926,-7706.4927,-7725.1685,-7730.76,-7724.6953,-7712.727,-7709.7017,-7725.57,-7726.02,-7724.156,-7742.3975,-7787.24,-7841.467,-7827.809,-7763.8145,-7772.383,-7863.8687,-7917.834,-7914.1284,-7867.923,-7781.901,-7745.4517,-7751.1265,-7780.178,-7822.5537,-7828.237,-7831.7744,-7794.815,-7761.0015,-7822.832,-7867.1055,-7848.1167,-7787.7886,-7709.8057,-7697.676,-7730.678,-7756.072,-7794.2676,-7817.896,-7775.549,-7746.5044,-7779.3955,-7785.0205,-7772.092,-7764.731,-7740.1035,-7750.912,-7777.624,-7778.2876,-7777.483,-7765.0405,-7754.543,-7768.935,-7795.4185,-7811.744,-7796.7456,-7779.8247,-7783.57,-7797.3906,-7817.294,-7831.6743,-7834.3677,-7821.447,-7817.218,-7835.576,-7826.1245,-7796.9443,-7808.581,-7858.5938,-7891.8726,-7851.267,-7778.254,-7742.821,-7732.812,-7758.4414,-7782.7104,-7757.3936,-7761.478,-7803.954,-7825.4077,-7828.863,-7819.252,-7810.887,-7822.4297,-7835.201,-7823.3657,-7795.695,-7780.2793,-7775.9526,-7745.5024,-7720.1006,-7748.1323,-7766.1626,-7803.2324,-7870.5845,-7844.223,-7792.112,-7783.469,-7779.0,-7788.7075,-7789.5493
-7800.4897,-7797.1714,-7760.362,-7764.24,-7772.577,-7760.0405,-7764.2847,-7783.549,-7800.77,-7788.2026,-7763.4604,-7761.9165,-7770.0225,-7774.0854,-7802.505,-7846.164,-7857.476,-7840.036,-7818.414,-7793.483,-7775.908,-7797.141,-7817.104,-7810.6426,-7835.21,-7888.0723,-7915.398,-7859.785,-7788.658,-7794.723,-7793.7905,-7761.731,-7758.1,-7805.2476,-7860.48,-7862.369,-7854.6094,-7833.338,-7804.14,-7801.281,-7787.0796,-7791.7773,-7797.5435,-7788.2295,-7796.16,-7789.709,-7782.9214,-7772.7925,-7785.2334,-7831.8604,-7824.7134,-7802.9644,-7815.9854,-7819.4263,-7825.2617,-7850.478,-7865.7812,-7869.342,-7865.3843,-7836.6523,-7824.774,-7827.2197,-7800.033,-7792.113,-7806.7876,-7817.271,-7839.5527,-7849.619,-7828.7305,-7783.2314,-7753.1133,-7798.426,-7898.8887,-7976.864,-7984.545,-7972.961,-7997.602,-7958.83,-7842.8174,-7802.808,-7801.7046,-7774.1304,-7804.4775,-7842.6772,-7850.708,-7876.3135,-7899.734,-7909.4575,-7858.35,-7794.9644,-7810.3823,-7812.5024,-7784.8145,-7801.1772,-7831.5215,-7847.4116,-7869.6377,-7892.515,-7884.814,-7852.083,-7826.1006,-7820.6387,-7833.324,-7845.615,-7857.588,-7875.2383,-7853.098,-7819.422,-7834.434,-7836.836,-7817.296,-7817.2915,-7817.405,-7818.407,-7821.227,-7830.9146,-7851.7886,-7859.6235,-7853.531,-7844.794,-7859.287,-7913.075,-7977.579,-8003.0747,-7971.8867,-7908.722,-7832.1055,-7812.861,-7840.3027,-7836.1323,-7843.9,-7830.8643,-7810.678,-7844.251,-7843.1133,-7824.529,-7835.5356,-7873.5728,-7903.6284,-7894.183,-7930.785,-7945.436,-7858.8286,-7793.89,-7840.162,-7927.5615,-7909.617,-7847.228,-7874.5356,-7945.617,-7971.8687,-7934.2925,-7914.8247,-7930.1294,-7906.2,-7861.2046,-7841.635,-7844.6436,-7833.805,-7813.168,-7835.954,-7858.0625,-7837.417,-7819.0996,-7813.3027,-7833.657,-7857.0146,-7850.5767,-7868.441,-7916.689,-7968.213,-7969.12,-7881.1465,-7826.1753,-7861.371,-7891.2935,-7878.9287,-7856.833,-7839.7856,-7832.54,-7849.0703,-7860.965,-7859.9014,-7878.9966,-7902.4233,-7933.304,-7980.4556,-7983.1606,-7937.205,-7928.194,-7937.022,-7915.5146,-7907.354,-7857.0493,-7792.975,-7823.7944,-7829.9946,-7800.223,-7828.5044,-7857.6655,-7882.4414,-7914.042,-7920.305,-7896.8506,-7873.141,-7863.755,-7836.119,-7827.7085,-7860.7637,-7873.864,-7885.0205,-7928.8506,-7944.5093,-7911.593,-7903.832,-7925.5103,-7910.9175,-7882.054,-7885.279,-7898.0186,-7914.196,-7945.9146,-7971.483,-7967.6904,-7928.1406,-7875.1724,-7862.63,-7868.136,-7835.933,-7826.857,-7846.653,-7859.362,-7905.051,-7930.924,-7902.131,-7876.098,-7891.96,-7918.64,-7897.325,-7895.2974,-7912.3716,-7894.8535,-7904.508,-7917.385,-7891.625,-7866.01,-7866.41,-7878.75,-7891.397,-7898.695,-7882.3447,-7881.901,-7890.369,-7882.2476,-7886.93,-7889.817,-7897.505,-7900.848,-7874.7656,-7860.0864,-7914.393,-8005.291,-7969.868,-7837.671,-7840.2446,-7910.0977,-7881.4883,-7868.152,-7887.148,-7859.955,-7857.4004,-7894.398,-7921.1704,-7905.5327,-7887.1836,-7893.3213,-7894.852,-7922.785,-7942.6743,-7946.365,-7933.592,-7877.5063,-7853.7886,-7839.2183,-7825.11,-7848.8604,-7852.9175,-7846.8325,-7849.776,-7848.161,-7853.6616,-7857.8564,-7862.655,-7893.6157,-7922.316,-7913.92,-7891.9146,-7865.283,-7865.312,-7884.5625,-7873.28,-7875.5703,-7877.52,-7868.9194,-7900.5576,-7912.6216,-7901.3945,-7918.005,-7923.9473,-7902.6255,-7887.373,-7905.978,-7968.454,-8045.9873,-8045.107,-7920.89,-7814.271,-7843.9697,-7877.886,-7840.3345,-7844.2886,-7881.738,-7915.9106,-7938.5425,-7889.524,-7827.6904,-7826.5234,-7868.101,-7913.392,-7918.1772,-7902.036,-7888.0156,-7876.617,-7884.26,-7881.2246,-7862.6763,-7855.691,-7854.063,-7867.8755,-7889.257,-7905.4517,-7915.9814,-7908.4453,-7915.3394,-7944.8374,-7959.1465,-7945.6235,-7903.791,-7879.1294,-7919.8174,-7975.5312,-7978.0654,-7931.7954,-7882.558,-7895.537,-7960.44,-7957.0703,-7886.106,-7867.989,-7893.264,-7906.503,-7897.2935,-7855.847,-7852.481,-7885.396,-7884.0063,-7892.299,-7899.685,-7883.391,-7874.356,-7869.619,-7874.0933,-7871.8433,-7877.2217,-7888.856,-7881.9893,-7878.2847,-7886.403,-7928.002,-7954.073,-7939.6025,-7949.7314,-7949.957,-7929.4375,-7905.4976,-7874.178,-7882.0874,-7884.1846,-7862.0137,-7881.1885,-7895.056,-7884.7065,-7887.581,-7896.2476,-7918.863,-7940.4653,-7963.49,-7975.832,-7907.8667,-7831.332,-7853.887,-7904.703,-7903.226,-7892.854,-7903.1694,-7911.724,-7924.8047,-7918.899,-7915.5776,-7958.574,-7963.6245,-7938.055,-7931.3726,-7918.027,-7932.9336,-7918.919,-7845.9326,-7829.4204,-7861.0913,-7866.087,-7878.296,-7914.5327,-7911.533,-7894.247,-7904.803,-7911.29,-7916.7593,-7931.1816,-7955.936,-7953.513,-7907.7563,-7881.476,-7885.569,-7898.15,-7912.7466,-7935.0874,-7971.812,-8025.073,-8071.7847,-8028.9756,-7918.7627,-7896.888,-7979.4844,-7986.717,-7922.2725,-7956.17,-7986.572,-7938.089,-7926.7104,-7927.605,-7939.124,-7953.5034,-7919.986,-7917.731,-7914.169,-7865.1914,-7864.984,-7890.5527,-7902.674,-7927.0312,-7931.0454,-7911.0347,-7897.2373,-7907.794,-7937.6196,-7935.991,-7916.7886,-7921.893,-7944.224,-7979.2847,-7993.614,-7972.1064,-7941.044,-7908.2266,-7894.2207,-7906.968,-7907.0664,-7893.9404,-7905.316,-7926.5337,-7936.3193,-7930.966,-7914.6416,-7912.0493,-7926.029,-7951.1113,-7956.9536,-7941.1055,-7947.694,-7957.232,-7982.6426,-8024.826,-7989.332,-7923.4624,-7932.466,-7951.1763,-7940.8877,-7959.58,-7985.0527,-7965.834,-7924.007,-7910.141,-7971.2524,-8047.8643,-8006.424,-7930.226,-7924.2485,-7917.4385,-7915.413,-7924.1807,-7933.712,-7942.963,-7915.6846,-7896.6064,-7904.232,-7928.4,-7938.8896,-7919.7305,-7926.091,-7930.682,-7937.33,-7981.9443,-8027.093,-8027.0073,-7963.963,-7912.7427,-7935.0537,-8020.164,-8099.8223,-8101.5176,-8023.9526,-7894.804,-7849.588,-7897.6777,-7891.505,-7883.8936,-7904.8965,-7915.0474,-7927.0347,-7921.8853,-7931.593,-7946.5347,-7948.019,-7966.463,-7965.4106,-7932.4272,-7915.729,-7923.818,-7924.027,-7923.563,-7924.557,-7927.9136,-7964.665,-8005.586,-8010.444,-7963.587,-7937.765,-8001.326,-8020.86,-7955.2236,-7933.5815,-7954.7075,-7936.82,-7910.829,-7938.5938,-7954.3145,-7927.2188,-7917.315,-7918.9707,-7905.3315,-7886.889,-7911.968,-7966.2573,-7966.653,-7927.8223,-7916.301,-7940.0146,-7945.0303,-7922.2075,-7922.846,-7942.012,-7978.214,-8001.7505,-7980.376,-7981.8457,-7996.919,-7967.6016,-7901.441,-7869.518,-7981.857,-8108.5176,-8041.8027,-7959.8325,-8000.8643,-7968.1807,-7883.3193,-7902.972,-7937.5996,-7924.8076,-7935.8276,-7971.9536,-7995.7334,-7992.7817,-7939.886,-7895.5347,-7901.289,-7899.182,-7899.7144,-7918.0845,-7956.7524,-8006.6,-7984.011,-7913.112,-7888.2363,-7900.5034,-7913.952,-7920.352,-7923.4604,-7942.3223,-7967.3555,-7966.416,-7954.243,-7946.8306,-7935.331,-7931.694,-7930.532,-7924.815,-7920.04,-7915.4204,-7923.926,-7932.93,-7935.2935,-7938.3203,-7931.862,-7929.753,-7945.136,-7964.878,-7973.287,-7982.2217,-7996.5376,-8011.5737,-8034.076,-8014.6113,-7943.3013,-7916.2554,-7954.122,-7986.9307,-7993.248,-7982.6514,-7978.1377,-7967.384,-7936.794,-7940.0596,-7940.287,-7928.3896,-7923.848,-7898.5107,-7910.3667,-7918.355,-7905.111,-7911.312,-7905.9277,-7931.211,-7964.0557,-7985.1694,-8004.68,-7995.18,-7971.4287,-7915.8765,-7888.2676,-7906.9775,-7911.539,-7939.394,-7986.705,-8026.565,-8027.0894,-8006.7397,-8023.0195,-8002.3447,-7955.5884,-7933.1865,-7895.425,-7902.8,-7953.861,-7973.2104,-7977.4956,-7954.49,-7941.3413,-7979.8228,-7983.057,-7946.2075,-7916.617,-7926.5083,-7971.2915,-7962.4707,-7932.2637,-7932.108,-7966.528,-8026.6074,-8019.148,-7958.9707,-7897.9385,-7878.292,-7920.304,-7921.6597,-7909.0107,-7937.9575,-7958.865,-7995.124,-8022.4023,-8001.2915,-7991.254,-7982.2124,-7963.7476,-7942.403,-7894.896,-7897.664,-7931.452,-7929.9463,-7938.819,-7953.9277,-7976.36,-7984.631,-7950.8438,-7923.175,-7934.194,-7963.016,-7965.061,-7970.6123,-7981.566,-7994.229,-8051.435,-8064.828,-8008.62,-7963.356,-7934.858,-7922.2026,-7925.195,-7936.25,-7938.5117,-7933.8213,-7945.126,-7942.9175,-7931.7925,-7944.4795,-7976.658,-8019.435,-8016.6733,-7960.184,-7922.115,-7905.824,-7896.388,-7913.767,-7939.0864,-7956.176,-7986.5815,-7993.957,-7958.5835,-7936.2803,-7942.2646,-7968.3164,-7960.232,-7903.1426,-7902.4443,-7992.6157,-8080.212,-8056.8413,-7993.3213,-7976.8657,-7958.783,-7968.037,-7950.3647,-7893.7935,-7918.2173,-7954.6157,-7974.775,-8012.2285,-8023.5176,-8007.8584,-7983.6387,-7972.199,-7963.7393,-7975.4756,-7994.626,-7961.319,-7900.284,-7874.601,-7916.1416,-7929.956,-7906.5464,-7910.9497,-7889.9727,-7924.4805,-8012.233,-8026.64,-7988.3296,-7933.778,-7932.0195,-7966.711,-7974.1006,-7975.2563,-7950.254,-7928.8384,-7922.7104,-7911.0977,-7916.8076,-7945.6504,-8000.2905,-8007.2754,-7955.41,-7936.6484,-7949.4536,-7959.5986,-7967.2144,-7976.799,-7989.5405,-8030.0317,-8064.877,-8029.671,-7973.858,-7941.8857,-7929.933,-7921.4,-7921.3857,-7953.6367,-7960.5513,-7937.121,-7962.0356,-8024.6704,-8036.248,-7998.0376,-8002.9185,-8061.0728,-8104.278,-8068.722,-7978.0938,-7915.0874,-7892.845,-7915.2344,-7969.519,-7995.11,-7981.3833,-7959.421,-7948.572,-7949.7036,-7951.0005,-7944.3774,-7945.1333,-7943.758,-7922.929,-7917.788,-7940.0347,-7977.4126,-8022.248,-8053.3696,-8028.2124,-7983.7383,-8018.5654,-8041.5596,-8005.483,-8015.0317,-8049.8364,-8077.9272,-8082.01,-8058.8413,-8032.373,-7967.7935,-7929.7017,-7977.9995,-8008.808,-7981.652,-7954.7065,-7959.544,-7974.1377,-7970.0054,-7974.007,-7967.0176,-7961.109,-8003.953,-8036.366,-8057.6284,-8070.355,-8063.0186,-8085.688,-8137.9644,-8178.78,-8108.837,-8019.8125,-8055.3506,-8053.474,-7991.272,-7994.9814,-8019.397,-7998.694,-7966.3926,-7975.9043,-7991.184,-8003.443,-8016.7734,-8001.0796,-7985.619,-7982.9297,-7985.273,-7990.8555,-7999.1187,-8007.659,-8013.3193,-8021.4316,-8004.5806,-7984.477,-8038.1865,-8128.2744,-8150.763,-8154.651,-8186.1113,-8146.4727,-8060.11,-8013.6626,-7998.074,-8003.881,-8010.499,-8022.006,-8041.9497,-8030.864,-8019.188,-8024.5146,-8008.624,-8000.8276,-8011.705,-8014.1533,-8007.733,-7995.066,-8022.037,-8085.6904,-8110.2544,-8109.088,-8114.982,-8090.2544,-8043.505,-8030.2275,-8055.1147,-8083.275,-8079.172,-8055.728,-8063.6123,-8077.2373,-8048.86,-8027.2085,-8046.162,-8082.9697,-8129.985,-8148.752,-8134.4277,-8128.8267,-8096.422,-8042.5547,-8046.007,-8066.8237,-8055.9917,-8082.531,-8142.0547,-8169.6,-8152.8745,-8104.5596,-8063.3853,-8047.678,-8064.917,-8065.141,-8025.5557,-8020.7046,-8015.655,-8008.074,-8022.366,-8018.792,-8033.1636,-8049.1675,-8052.862,-8059.0967,-8063.422,-8074.5454,-8073.3096,-8078.365,-8074.5386,-8065.537,-8077.9546,-8094.0386,-8156.024,-8237.621,-8245.348,-8142.1685,-8027.6343,-8020.794,-8059.9404,-8080.082,-8054.542,-8030.511,-8091.5107,-8149.3237,-8142.0347,-8115.651,-8092.8833,-8076.3804,-8056.148,-8040.3423,-8080.899,-8133.1367,-8084.4014,-8043.608,-8104.226,-8130.5596,-8080.414,-8052.8,-8073.517,-8077.2573,-8084.394,-8112.282,-8126.6567,-8169.2935,-8190.3916,-8139.9604,-8108.64,-8124.963,-8107.308,-8053.4136,-8049.4507,-8057.7207,-8057.6504,-8075.494,-8064.311,-8071.286,-8100.4473,-8103.5605,-8117.724,-8110.7197,-8086.3423,-8107.1772,-8133.7036,-8134.0503,-8129.4414,-8134.2354,-8151.243,-8161.026,-8143.6274,-8103.589,-8084.563,-8092.7876,-8088.418,-8091.722,-8090.5874,-8076.566,-8101.2305,-8129.5854,-8140.633,-8138.355,-8111.86,-8116.4805,-8134.4194,-8111.2163,-8065.841,-8026.8105,-8034.796,-8065.877,-8096.0317,-8183.4043,-8243.315,-8185.7666,-8118.405,-8089.232,-8069.082,-8067.8633,-8060.765,-8048.339,-8070.432,-8090.98,-8093.622,-8097.839,-8138.303,-8244.308,-8234.585,-8128.379,-8122.464,-8095.239,-8075.879,-8122.556,-8102.504,-8067.014,-8057.379,-8065.0723,-8080.771,-8131.0767,-8211.851,-8206.732,-8201.94,-8207.5205,-8158.2046,-8154.733,-8136.653,-8096.259,-8077.103,-8044.6655,-8038.6636,-8042.108,-8088.078,-8151.3677,-8159.4634,-8160.9473,-8146.4688,-8118.0034,-8084.4907,-8076.4067,-8089.3677,-8082.481,-8093.89,-8076.0337,-8057.1133,-8063.692,-8068.8506,-8107.862,-8098.5557,-8098.2974,-8178.8315,-8242.308,-8256.775,-8191.8037,-8113.828,-8106.2495,-8125.314,-8133.1123,-8123.7954,-8140.2617,-8156.701,-8124.3916,-8109.0728,-8134.242,-8146.5117,-8110.5566,-8064.4473,-8060.5273,-8072.6455,-8080.131,-8112.9546,-8149.1655,-8143.308,-8126.661,-8089.5435,-8062.5137,-8115.0146,-8150.7207,-8177.3716,-8204.326,-8127.8936,-8072.493,-8117.722,-8164.4077,-8143.3887,-8079.6772,-8075.0137,-8097.3545,-8123.318,-8180.857,-8180.6973,-8107.767,-8055.186,-8067.1353,-8078.2637,-8074.6787,-8096.85,-8096.3696,-8093.913,-8106.824,-8104.9185,-8113.5977,-8113.6226,-8104.69,-8112.595,-8111.3394,-8092.2363,-8110.4087,-8158.089,-8151.5186,-8137.7935,-8141.0366,-8117.055,-8127.967,-8139.4297,-8111.6274,-8121.251,-8133.4487,-8116.079,-8127.735,-8184.2603,-8216.748,-8150.863,-8081.723,-8108.6655,-8134.4634,-8099.5366,-8073.1943,-8077.8984,-8081.2876
-8091.2905,-8119.5923,-8126.778,-8121.424,-8145.685,-8148.4624,-8130.206,-8150.549,-8172.258,-8185.8984,-8212.082,-8183.5215,-8085.802,-8071.7,-8148.898,-8147.073,-8098.0605,-8077.669,-8084.2993,-8109.2124,-8111.4746,-8111.225,-8107.3687,-8116.8745,-8155.3506,-8160.248,-8137.2363,-8125.8555,-8130.7725,-8122.6445,-8098.7534,-8097.4414,-8117.031,-8113.6895,-8098.1064,-8132.832,-8178.8296,-8200.172,-8186.665,-8136.1846,-8138.806,-8174.8594,-8189.5103,-8173.751,-8125.1245,-8121.6606,-8145.062,-8170.8174,-8208.073,-8195.651,-8178.981,-8207.575,-8223.769,-8175.947,-8086.6665,-8039.596,-8096.0024,-8196.455,-8200.901,-8135.419,-8105.2495,-8104.953,-8125.028,-8146.3984,-8141.0806,-8162.8257,-8247.769,-8261.376,-8160.178,-8114.341,-8131.956,-8136.3105,-8126.5654,-8101.01,-8091.3003,-8077.979,-8068.744,-8075.2793,-8077.5083,-8110.8936,-8129.313,-8122.788,-8122.352,-8124.043,-8137.5596,-8117.9067,-8109.664,-8139.032,-8129.0376,-8103.623,-8118.584,-8164.793,-8186.443,-8183.192,-8176.1104,-8153.6284,-8158.229,-8187.865,-8202.631,-8200.685,-8199.638,-8233.18,-8250.085,-8180.8027,-8096.061,-8093.3887,-8109.7817,-8073.8438,-8085.0996,-8152.319,-8154.1294,-8111.8423,-8107.6875,-8122.4443,-8123.3975,-8121.025,-8117.145,-8131.2134,-8149.362,-8160.1333,-8240.357,-8318.052,-8257.713,-8148.521,-8124.9497,-8163.1333,-8150.6675,-8086.6055,-8067.8525,-8097.117,-8129.724,-8138.4116,-8126.655,-8155.1357,-8181.0303,-8146.174,-8139.179,-8160.456,-8141.2812,-8115.673,-8127.1855,-8146.8374,-8128.894,-8124.0625,-8134.312,-8098.316,-8085.2256,-8125.46,-8163.0312,-8177.091,-8176.1855,-8188.3726,-8214.08,-8245.132,-8251.657,-8238.362,-8225.2295,-8175.9067,-8148.4614,-8137.2324,-8069.763,-8038.5146,-8072.682,-8104.5527,-8138.7754,-8179.495,-8170.274,-8104.3765,-8077.46,-8096.4497,-8104.8813,-8086.972,-8065.19,-8113.2715,-8182.1816,-8193.669,-8151.964,-8076.265,-8061.6714,-8122.9355,-8189.15,-8213.111,-8167.3823,-8126.998,-8161.095,-8214.743,-8214.636,-8205.818,-8261.264,-8287.271,-8184.9917,-8083.7188,-8071.2993,-8066.7036,-8077.474,-8094.772,-8089.6045,-8101.17,-8096.837,-8073.2075,-8068.3823,-8076.9927,-8086.2505,-8088.7793,-8096.403,-8113.5576,-8123.354,-8119.874,-8117.8706,-8122.8955,-8141.4243,-8162.759,-8166.8735,-8161.037,-8149.3765,-8166.2407,-8215.438,-8263.096,-8289.639,-8266.143,-8256.959,-8271.446,-8209.217,-8134.1055,-8137.419,-8133.1436,-8072.783,-8092.5454,-8186.562,-8189.198,-8160.805,-8163.8384,-8159.3135,-8167.8823,-8146.724,-8120.449,-8146.8613,-8174.0693,-8173.8584,-8163.164,-8150.2344,-8121.802,-8116.256,-8154.239,-8203.334,-8257.42,-8245.686,-8188.035,-8186.4927,-8179.3984,-8149.9683,-8159.318,-8159.7056,-8129.8457,-8113.218,-8113.384,-8121.2437,-8172.0503,-8263.958,-8265.545,-8172.5015,-8123.4795,-8102.644,-8115.271,-8187.911,-8255.013,-8278.043,-8199.084,-8116.61,-8128.4824,-8146.927,-8197.191,-8233.277,-8193.147,-8170.795,-8167.1377,-8167.548,-8153.4536,-8134.077,-8130.6406,-8097.866,-8098.2056,-8135.404,-8161.1587,-8204.796,-8253.076,-8274.222,-8232.075,-8191.0625,-8206.047,-8179.681,-8110.045,-8100.9746,-8133.808,-8121.902,-8101.8564,-8115.464,-8123.145,-8107.044,-8079.8486,-8083.0723,-8112.7764,-8125.6157,-8127.614,-8127.672,-8116.496,-8111.847,-8122.754,-8131.286,-8152.667,-8185.4253,-8196.494,-8186.4263,-8186.2017,-8181.9927,-8125.882,-8084.521,-8103.9746,-8135.666,-8171.124,-8175.0483,-8171.7314,-8204.109,-8201.3545,-8164.2744,-8119.7827,-8095.5103,-8140.1323,-8128.129,-8068.5405,-8121.491,-8170.4307,-8169.2515,-8178.5713,-8138.476,-8108.268,-8108.398,-8091.3286,-8078.1216,-8081.8345,-8106.493,-8111.58,-8107.9404,-8109.304,-8096.808,-8113.714,-8128.556,-8139.834,-8184.7856,-8217.116,-8250.225,-8237.565,-8134.7275,-8080.3804,-8116.2046,-8146.815,-8152.5635,-8172.831,-8240.245,-8324.058,-8296.215,-8184.287,-8119.434,-8050.814,-8042.905,-8148.892,-8223.177,-8233.276,-8176.182,-8140.8755,-8182.9053,-8167.7866,-8122.376,-8138.672,-8144.89,-8094.2236,-8092.272,-8107.1523,-8076.99,-8102.7246,-8132.36,-8141.171,-8156.0405,-8142.3237,-8173.7993,-8238.248,-8259.225,-8235.204,-8189.1855,-8138.674,-8105.5215,-8106.321,-8104.1665,-8116.842,-8144.182,-8137.8735,-8144.496,-8175.838,-8201.971,-8222.126,-8191.605,-8131.226,-8129.753,-8121.14,-8082.675,-8121.7334,-8107.4185,-8022.4844,-8068.7056,-8148.7544,-8192.482,-8242.805,-8275.351,-8311.634,-8265.531,-8172.244,-8153.1626,-8164.1416,-8155.6343,-8113.3193,-8114.14,-8144.752,-8176.7114,-8237.573,-8223.933,-8187.7812,-8144.6978,-8075.7715,-8082.3223,-8089.1597,-8107.374,-8151.0054,-8156.918,-8188.178,-8221.837,-8222.082,-8206.409,-8204.931,-8223.687,-8215.189,-8179.745,-8106.8716,-8059.79,-8118.3335,-8147.8257,-8067.881,-8022.0967,-8070.8477,-8133.7817,-8177.536,-8187.5737,-8182.2915,-8216.902,-8290.066,-8343.296,-8257.805,-8115.276,-8097.6753,-8098.0137,-8085.19,-8124.646,-8128.272,-8124.0547,-8154.939,-8161.759,-8170.9136,-8231.501,-8270.351,-8247.745,-8255.368,-8259.53,-8189.0435,-8112.09,-8078.105,-8083.3267,-8106.386,-8139.1357,-8211.507,-8322.942,-8322.133,-8192.628,-8151.2407,-8151.855,-8118.0913,-8125.508,-8128.7393,-8118.347,-8101.2354,-8106.6514,-8146.0337,-8156.106,-8191.2026,-8234.647,-8223.691,-8207.057,-8185.2144,-8168.415,-8167.4434,-8143.1055,-8112.2803,-8121.8384,-8148.3643,-8139.1245,-8129.0327,-8138.7705,-8145.8135,-8176.9087,-8200.46,-8142.128,-8077.076,-8113.531,-8135.1553,-8093.926,-8109.0503,-8117.9873,-8098.614,-8115.675,-8126.8296,-8140.261,-8152.025,-8147.958,-8147.22,-8134.7803,-8125.921,-8145.6475,-8202.744,-8255.248,-8266.119,-8244.538,-8174.6016,-8130.3447,-8153.8438,-8146.493,-8122.476,-8131.7524,-8140.123,-8140.097,-8135.9756,-8147.601,-8167.349,-8162.2856,-8158.799,-8156.2114,-8143.35,-8145.669,-8147.5967,-8130.847,-8114.4272,-8110.508,-8117.004,-8120.6064,-8111.7334,-8116.0044,-8134.5405,-8144.2153,-8152.7856,-8156.845,-8162.879,-8164.671,-8147.998,-8153.8467,-8174.8135,-8171.295,-8161.7866,-8173.462,-8203.668,-8226.958,-8211.256,-8164.2563,-8156.557,-8181.075,-8160.627,-8130.5957,-8152.223,-8177.5625,-8158.679,-8145.663,-8160.2896,-8170.214,-8183.584,-8195.064,-8191.3506,-8170.144,-8148.4863,-8171.474,-8213.147,-8201.998,-8137.6577,-8117.0986,-8156.141,-8148.874,-8131.0977,-8162.0396,-8185.4004,-8186.8647,-8177.55,-8174.9463,-8158.693,-8134.23,-8170.3755,-8225.8955,-8250.7295,-8227.037,-8165.408,-8147.3154,-8156.5,-8150.459,-8142.7026,-8143.928,-8158.562,-8175.3003,-8196.513,-8200.206,-8216.619,-8255.776,-8238.673,-8217.944,-8209.692,-8176.369,-8169.123,-8174.684,-8190.7065,-8211.212,-8217.253,-8200.935,-8141.805,-8127.9146,-8146.713,-8138.352,-8163.034,-8176.852,-8169.1865,-8173.9595,-8152.136,-8144.295,-8164.3125,-8181.9033,-8207.069,-8221.198,-8215.292,-8208.101,-8230.695,-8259.428,-8227.609,-8171.933,-8155.0176,-8188.818,-8265.18,-8336.669,-8315.273,-8155.95,-8035.2065,-8079.7773,-8142.6313,-8213.059,-8275.075,-8205.716,-8154.8276,-8174.0454,-8153.6514,-8151.347,-8172.147,-8177.089,-8170.5947,-8162.269,-8166.4126,-8169.183,-8201.636,-8266.741,-8297.152,-8289.69,-8285.126,-8279.646,-8269.388,-8240.332,-8165.293,-8131.7373,-8146.482,-8123.9136,-8134.306,-8184.2466,-8231.675,-8266.794,-8229.341,-8168.314,-8147.9507,-8165.137,-8163.5986,-8125.909,-8136.5713,-8182.4336,-8234.739,-8297.473,-8387.207,-8461.619,-8417.765,-8318.288,-8209.897,-8143.6567,-8156.8916,-8163.5166,-8175.692,-8177.468,-8159.561,-8163.294,-8190.984,-8200.109,-8150.4146,-8139.4683,-8150.8115,-8152.2544,-8177.0312,-8159.573,-8122.363,-8087.8164,-8102.346,-8167.172,-8177.3076,-8186.237,-8242.23,-8299.93,-8343.154,-8403.668,-8452.219,-8381.468,-8233.941,-8149.7637,-8144.633,-8113.9404,-8085.5806,-8108.5215,-8105.676,-8115.662,-8123.875,-8111.094,-8140.938,-8162.767,-8176.4575,-8190.998,-8207.568,-8261.699,-8331.8125,-8383.18,-8355.99,-8245.445,-8149.1294,-8145.5845,-8178.9717,-8187.967,-8192.56,-8182.7437,-8186.3184,-8197.988,-8183.9478,-8171.7544,-8168.6235,-8199.489,-8239.571,-8240.2705,-8216.863,-8187.8403,-8161.38,-8126.1045,-8106.6323,-8118.4746,-8161.4644,-8224.737,-8240.491,-8222.921,-8199.198,-8167.915,-8156.83,-8152.194,-8155.6104,-8164.824,-8160.2075,-8152.2114,-8169.409,-8193.192,-8158.333,-8107.118,-8109.3667,-8151.4873,-8192.764,-8202.234,-8192.252,-8188.7544,-8179.9966,-8148.438,-8153.673,-8209.106,-8239.1875,-8207.064,-8139.534,-8147.431,-8208.685,-8225.508,-8258.148,-8263.153,-8202.748,-8196.38,-8198.391,-8140.8,-8132.6445,-8171.404,-8146.35,-8111.769,-8126.516,-8141.239,-8162.813,-8175.8257,-8179.3423,-8214.212,-8244.681,-8238.82,-8191.471,-8156.385,-8162.2363,-8159.9385,-8179.7886,-8203.188,-8174.125,-8156.4155,-8163.151,-8155.9287,-8167.9814,-8209.752,-8250.567,-8261.73,-8236.304,-8208.967,-8187.536,-8179.4424,-8211.522,-8217.7295,-8147.5757,-8104.075,-8118.472,-8128.4023,-8159.8784,-8173.1533,-8141.486,-8145.1187,-8155.7417,-8154.066,-8179.5024,-8197.072,-8189.8315,-8189.6074,-8207.977,-8227.206,-8232.076,-8214.27,-8183.9175,-8186.255,-8210.936,-8225.264,-8253.232,-8267.328,-8235.411,-8224.104,-8245.556,-8197.694,-8120.9067,-8145.2065,-8199.473,-8202.813,-8182.544,-8171.32,-8187.799,-8205.566,-8232.904,-8248.327,-8220.84,-8202.827,-8198.069,-8187.6807,-8229.739,-8357.256,-8426.49,-8318.929,-8156.0786,-8120.345,-8174.56,-8166.203,-8164.1978,-8186.0166,-8178.163,-8185.0654,-8175.3516,-8214.584,-8268.241,-8257.328,-8246.184,-8174.938,-8087.6978,-8078.1606,-8113.1045,-8156.106,-8170.4375,-8147.5757,-8099.309,-8100.8037,-8181.6787,-8229.433,-8209.7705,-8229.468,-8269.345,-8248.368,-8234.41,-8225.035,-8203.459,-8218.488,-8241.024,-8267.15,-8282.557,-8255.07,-8186.286,-8119.0547,-8148.309,-8214.129,-8193.986,-8150.81,-8159.2827,-8183.5605,-8206.474,-8211.32,-8180.7026,-8196.371,-8259.407,-8281.133,-8256.825,-8196.915,-8167.708,-8181.474,-8159.4277,-8152.6655,-8198.839,-8241.618,-8219.846,-8165.811,-8177.307,-8205.8,-8211.782,-8230.769,-8264.911,-8315.944,-8338.706,-8278.584,-8176.8047,-8172.9067,-8248.963,-8254.38,-8180.423,-8107.0645,-8132.772,-8186.418,-8167.2783,-8143.147,-8138.4956,-8210.866,-8286.299,-8233.753,-8205.742,-8231.551,-8205.091,-8178.5435,-8168.613,-8148.429,-8145.5703,-8156.125,-8160.1685,-8164.9204,-8173.3984,-8195.567,-8212.958,-8219.043,-8249.604,-8267.224,-8225.153,-8160.3096,-8142.0195,-8170.16,-8188.1587,-8199.655,-8198.603,-8193.472,-8249.858,-8327.496,-8310.776,-8207.05,-8178.092,-8211.223,-8143.8086,-8082.756,-8124.9517,-8158.8984,-8177.952,-8218.182,-8221.258,-8178.072,-8164.138,-8209.118,-8272.624,-8273.738,-8246.987,-8259.115,-8245.13,-8250.021,-8287.975,-8262.557,-8184.1235,-8130.1333,-8152.5986,-8164.4424,-8136.6055,-8146.423,-8212.007,-8276.417,-8254.994,-8271.473,-8341.316,-8283.713,-8215.132,-8234.968,-8204.297,-8145.962,-8158.5747,-8166.9194,-8155.5195,-8173.4756,-8185.2065,-8213.891,-8251.736,-8256.726,-8260.881,-8259.523,-8251.894,-8298.359,-8348.166,-8285.442,-8205.74,-8169.7324,-8126.88,-8146.8574,-8182.3105,-8179.572,-8179.9824,-8167.7754,-8174.2627,-8183.139,-8182.3105,-8192.757,-8190.087,-8194.299,-8175.938,-8159.2373,-8204.519,-8230.58,-8211.525,-8194.39,-8199.347,-8213.327,-8218.803,-8233.821,-8222.263,-8196.603,-8212.531,-8231.479,-8238.836,-8212.395,-8171.7085,-8216.391,-8276.444,-8248.729,-8196.442,-8167.904,-8151.645,-8159.2207,-8186.859,-8231.249,-8274.8,-8291.341,-8317.582,-8304.916,-8210.538,-8150.097,-8152.671,-8174.335,-8225.92,-8257.357,-8210.829,-8179.1055,-8262.541,-8335.843,-8264.233,-8183.2407,-8175.4663,-8135.345,-8105.845,-8139.6743,-8170.978,-8159.6436,-8127.882,-8159.9766,-8204.163,-8223.58,-8273.911,-8270.311,-8243.105,-8274.416,-8280.435,-8245.887,-8195.054,-8128.12,-8149.279,-8258.533,-8294.713,-8285.622,-8303.825,-8291.344,-8220.606,-8123.879,-8109.746,-8144.08,-8150.443,-8168.673,-8161.1587,-8192.1455,-8246.987,-8210.599,-8164.6177,-8145.1816,-8163.5664,-8201.6875,-8214.481,-8236.417,-8232.415,-8215.856,-8209.337,-8183.7393,-8183.7437,-8195.126,-8187.2173,-8210.646,-8259.171,-8283.433,-8301.891,-8352.746,-8386.092,-8317.014,-8235.922,-8284.645,-8367.769,-8380.522,-8348.296,-8268.422,-8192.746,-8148.333,-8131.257,-8171.1616,-8192.543,-8220.772,-8284.962,-8305.732,-8301.089,-8254.696,-8200.809,-8162.7554,-8138.1885,-8177.712,-8173.457,-8138.8545,-8136.9175,-8128.3237,-8166.52,-8193.153,-8185.0283,-8221.4795,-8260.094,-8265.588,-8256.004,-8262.593,-8262.7705,-8239.203,-8293.687,-8365.529,-8328.267,-8269.598,-8206.495,-8163.9844,-8208.496,-8225.005,-8216.182,-8225.1455,-8183.9,-8155.1753,-8180.19,-8189.069,-8208.115
-8274.742,-8268.8545,-8177.914,-8154.6357,-8180.326,-8187.68,-8189.4487,-8184.0557,-8197.674,-8228.766,-8288.095,-8363.498,-8353.582,-8270.345,-8193.537,-8163.0493,-8179.282,-8179.816,-8188.601,-8218.372,-8221.138,-8235.191,-8230.436,-8228.091,-8283.239,-8266.373,-8200.746,-8207.228,-8220.296,-8187.0703,-8170.7583,-8199.066,-8193.491,-8162.206,-8221.11,-8343.657,-8358.014,-8260.656,-8215.421,-8218.807,-8207.737,-8190.1943,-8169.6025,-8192.216,-8222.53,-8208.503,-8206.749,-8209.12,-8228.552,-8266.034,-8237.892,-8223.73,-8237.631,-8224.158,-8263.537,-8267.245,-8225.198,-8243.105,-8231.667,-8210.259,-8219.823,-8222.934,-8238.757,-8226.388,-8193.768,-8188.8623,-8207.004,-8222.906,-8213.21,-8223.328,-8259.487,-8278.298,-8276.225,-8252.334,-8235.32,-8212.219,-8165.3296,-8189.003,-8241.071,-8229.087,-8250.815,-8316.583,-8335.463,-8318.195,-8315.788,-8328.015,-8335.875,-8313.88,-8245.636,-8204.795,-8168.585,-8117.1714,-8153.9907,-8191.889,-8180.4307,-8200.749,-8215.263,-8207.888,-8236.803,-8327.111,-8356.526,-8241.626,-8164.501,-8216.223,-8233.761,-8194.381,-8203.634,-8209.022,-8194.314,-8200.454,-8205.404,-8231.882,-8244.393,-8229.187,-8243.25,-8244.641,-8232.757,-8233.324,-8212.953,-8228.21,-8284.975,-8286.397,-8243.675,-8207.317,-8199.837,-8197.3,-8165.2793,-8160.504,-8172.592,-8161.679,-8163.517,-8181.6514,-8212.127,-8230.224,-8231.592,-8243.04,-8232.924,-8205.468,-8191.5303,-8199.686,-8207.568,-8206.759,-8272.057,-8332.927,-8271.741,-8213.584,-8269.1875,-8319.081,-8248.212,-8183.256,-8206.413,-8216.43,-8228.7,-8239.823,-8212.125,-8218.851,-8235.718,-8245.757,-8289.779,-8291.672,-8240.798,-8208.923,-8171.9087,-8146.786,-8176.0796,-8207.688,-8260.78,-8337.907,-8339.724,-8272.535,-8199.697,-8166.9253,-8207.657,-8284.896,-8325.464,-8291.381,-8245.099,-8251.904,-8240.207,-8190.4736,-8187.4556,-8207.323,-8248.705,-8300.129,-8250.775,-8179.949,-8182.017,-8190.0254,-8172.805,-8168.1514,-8207.325,-8224.445,-8203.58,-8206.977,-8255.034,-8340.152,-8373.579,-8339.635,-8297.708,-8248.953,-8219.003,-8205.832,-8240.916,-8309.246,-8260.554,-8169.1245,-8178.912,-8189.866,-8168.781,-8203.031,-8269.381,-8301.967,-8298.486,-8292.137,-8287.04,-8262.607,-8224.447,-8177.873,-8177.826,-8244.812,-8251.469,-8207.591,-8210.672,-8224.231,-8238.439,-8253.325,-8274.419,-8297.727,-8269.496,-8245.59,-8278.275,-8297.018,-8258.5,-8245.201,-8294.762,-8318.596,-8293.736,-8238.638,-8198.107,-8216.196,-8262.666,-8286.441,-8239.6045,-8212.402,-8243.624,-8213.421,-8162.5835,-8180.2817,-8231.857,-8272.122,-8281.419,-8248.965,-8209.518,-8200.83,-8209.809,-8229.594,-8240.379,-8262.746,-8294.091,-8264.701,-8226.463,-8219.202,-8214.346,-8220.698,-8227.36,-8214.913,-8192.1045,-8243.831,-8364.347,-8400.559,-8342.545,-8293.809,-8265.449,-8228.952,-8200.517,-8194.925,-8244.296,-8327.998,-8346.493,-8306.048,-8255.847,-8230.378,-8222.98,-8199.945,-8210.944,-8226.658,-8210.808,-8211.373,-8216.057,-8221.672,-8252.326,-8319.807,-8352.313,-8270.669,-8218.738,-8283.865,-8306.619,-8233.174,-8173.596,-8178.502,-8206.669,-8245.765,-8307.298,-8362.485,-8395.981,-8367.444,-8263.859,-8175.8604,-8167.4736,-8204.593,-8219.53,-8244.376,-8334.304,-8369.867,-8268.741,-8196.817,-8210.886,-8203.912,-8204.435,-8220.721,-8231.031,-8234.118,-8218.614,-8232.937,-8245.288,-8234.147,-8233.86,-8246.464,-8253.296,-8231.569,-8241.769,-8261.921,-8253.453,-8251.078,-8245.574,-8270.942,-8281.528,-8273.6875,-8338.117,-8393.517,-8359.394,-8283.922,-8253.04,-8250.736,-8220.453,-8198.068,-8177.466,-8176.4067,-8198.4,-8202.774,-8219.976,-8223.802,-8218.628,-8232.4795,-8231.872,-8222.809,-8206.316,-8211.714,-8231.884,-8225.035,-8214.438,-8198.841,-8191.5366,-8200.799,-8221.469,-8249.952,-8255.562,-8256.361,-8251.211,-8245.295,-8252.411,-8232.485,-8215.7,-8225.507,-8232.089,-8252.209,-8297.063,-8305.108,-8227.683,-8178.1753,-8227.898,-8271.486,-8281.755,-8295.105,-8311.482,-8315.581,-8310.126,-8315.184,-8289.439,-8265.27,-8270.694,-8257.328,-8251.488,-8240.166,-8244.206,-8250.654,-8229.531,-8284.539,-8308.166,-8249.714,-8241.654,-8214.936,-8180.1934,-8202.131,-8219.366,-8231.631,-8247.483,-8252.933,-8252.022,-8242.047,-8226.436,-8218.562,-8221.598,-8214.793,-8196.036,-8217.841,-8290.571,-8348.864,-8348.597,-8298.925,-8255.022,-8225.314,-8199.272,-8215.576,-8232.345,-8225.359,-8280.775,-8400.823,-8444.064,-8366.893,-8325.081,-8317.175,-8217.044,-8131.689,-8146.182,-8182.7754,-8195.383,-8193.078,-8244.982,-8279.497,-8215.47,-8199.607,-8241.622,-8258.506,-8263.582,-8240.68,-8224.623,-8247.553,-8258.887,-8234.682,-8226.0625,-8267.137,-8298.472,-8281.609,-8233.507,-8194.571,-8206.736,-8220.045,-8222.641,-8245.259,-8239.466,-8238.073,-8270.939,-8290.452,-8295.175,-8296.727,-8330.159,-8366.246,-8342.886,-8334.5625,-8389.712,-8360.282,-8213.271,-8180.838,-8219.342,-8178.3696,-8207.416,-8276.561,-8283.0625,-8281.17,-8271.826,-8258.606,-8218.653,-8184.033,-8217.819,-8279.959,-8310.991,-8292.795,-8306.773,-8331.151,-8284.93,-8262.292,-8269.802,-8229.287,-8198.3,-8224.096,-8245.431,-8243.761,-8276.909,-8350.079,-8419.55,-8403.887,-8310.191,-8276.317,-8251.268,-8166.6396,-8156.2046,-8213.357,-8252.543,-8261.097,-8241.548,-8243.109,-8233.435,-8225.442,-8280.489,-8297.985,-8284.968,-8305.55,-8266.58,-8190.4507,-8209.046,-8291.3,-8301.384,-8262.739,-8290.952,-8335.286,-8360.483,-8415.273,-8429.551,-8376.076,-8294.269,-8212.603,-8226.601,-8294.387,-8288.832,-8278.446,-8316.577,-8324.971,-8288.668,-8247.167,-8233.4375,-8239.209,-8241.103,-8252.334,-8265.502,-8263.455,-8240.494,-8216.937,-8207.678,-8205.47,-8247.541,-8353.011,-8426.097,-8350.454,-8239.774,-8233.558,-8242.883,-8240.606,-8252.647,-8272.266,-8317.632,-8333.729,-8284.106,-8234.771,-8253.826,-8275.386,-8252.319,-8260.379,-8274.413,-8274.522,-8278.825,-8250.272,-8230.9,-8233.774,-8247.022,-8311.131,-8371.226,-8371.532,-8331.325,-8307.929,-8346.684,-8352.873,-8294.305,-8268.279,-8261.367,-8217.451,-8167.9106,-8171.062,-8233.869,-8288.759,-8287.933,-8299.946,-8299.148,-8238.625,-8241.603,-8273.162,-8264.509,-8262.424,-8249.799,-8236.094,-8229.757,-8268.819,-8325.657,-8316.623,-8290.641,-8239.8955,-8206.641,-8264.869,-8336.169,-8377.545,-8344.055,-8248.088,-8202.604,-8231.879,-8260.772,-8240.99,-8246.641,-8276.511,-8271.057,-8270.97,-8279.034,-8276.477,-8262.322,-8220.395,-8185.28,-8211.129,-8247.769,-8245.91,-8235.752,-8220.242,-8218.529,-8236.323,-8260.049,-8280.937,-8274.964,-8274.447,-8266.767,-8255.07,-8295.477,-8313.285,-8285.93,-8309.003,-8379.971,-8403.962,-8356.981,-8310.463,-8265.22,-8221.0625,-8207.7705,-8182.8823,-8176.765,-8217.53,-8265.641,-8310.573,-8299.459,-8238.082,-8226.623,-8283.088,-8330.42,-8339.146,-8320.28,-8263.927,-8244.433,-8258.64,-8213.646,-8179.7026,-8191.6567,-8202.165,-8219.453,-8226.906,-8230.039,-8250.089,-8266.525,-8266.629,-8266.064,-8276.664,-8292.7,-8313.346,-8305.843,-8286.045,-8291.69,-8258.761,-8213.495,-8227.923,-8264.901,-8287.894,-8283.871,-8292.402,-8340.094,-8358.006,-8355.847,-8404.231,-8414.002,-8327.317,-8265.32,-8248.811,-8233.042,-8224.986,-8215.156,-8223.7295,-8237.352,-8233.937,-8231.262,-8234.013,-8260.761,-8271.767,-8252.846,-8260.361,-8274.487,-8303.972,-8351.262,-8337.16,-8288.491,-8267.876,-8248.47,-8227.552,-8236.67,-8267.734,-8275.172,-8260.02,-8265.807,-8289.914,-8367.509,-8474.16,-8469.941,-8362.15,-8246.563,-8209.124,-8264.156,-8281.51,-8261.167,-8276.051,-8262.97,-8247.769,-8289.452,-8291.088,-8247.696,-8246.126,-8256.289,-8254.398,-8260.231,-8252.392,-8229.439,-8229.141,-8231.358,-8222.9,-8234.254,-8235.183,-8225.22,-8227.189,-8243.062,-8280.547,-8302.152,-8306.716,-8333.224,-8398.452,-8451.399,-8416.729,-8380.3125,-8384.943,-8332.584,-8286.455,-8287.856,-8240.2295,-8199.6045,-8212.901,-8208.56,-8223.144,-8267.415,-8279.834,-8283.982,-8277.334,-8257.963,-8235.145,-8217.235,-8251.957,-8255.175,-8227.256,-8274.946,-8311.503,-8272.584,-8236.486,-8244.302,-8237.06,-8238.404,-8276.48,-8267.288,-8268.209,-8292.283,-8274.308,-8306.097,-8394.07,-8411.657,-8338.686,-8303.06,-8326.976,-8287.526,-8203.836,-8167.0757,-8204.859,-8268.152,-8271.604,-8252.223,-8250.607,-8260.235,-8293.364,-8303.179,-8268.057,-8237.994,-8259.246,-8306.804,-8309.845,-8272.757,-8258.033,-8272.889,-8267.113,-8258.2,-8271.054,-8266.52,-8256.459,-8262.228,-8275.573,-8293.442,-8322.335,-8361.956,-8367.096,-8352.62,-8370.8955,-8357.525,-8274.677,-8236.404,-8252.241,-8223.578,-8220.384,-8254.607,-8243.761,-8234.864,-8237.002,-8251.187,-8272.699,-8274.495,-8292.907,-8318.851,-8346.206,-8339.066,-8285.506,-8272.905,-8290.296,-8279.95,-8253.784,-8259.969,-8284.886,-8289.973,-8286.237,-8278.659,-8314.252,-8352.131,-8319.851,-8302.886,-8311.367,-8311.167,-8335.497,-8357.028,-8337.389,-8301.583,-8284.592,-8268.897,-8285.415,-8325.066,-8285.989,-8244.832,-8261.327,-8261.162,-8260.915,-8266.475,-8269.315,-8271.701,-8256.521,-8259.983,-8275.608,-8271.58,-8274.485,-8276.596,-8282.068,-8312.69,-8334.541,-8356.319,-8374.506,-8394.732,-8468.434,-8424.1,-8198.873,-8136.514,-8261.582,-8266.122,-8228.122,-8261.134,-8249.377,-8233.72,-8240.133,-8229.686,-8233.606,-8235.489,-8242.888,-8264.695,-8255.587,-8247.094,-8295.744,-8340.771,-8372.224,-8405.437,-8372.701,-8332.685,-8300.082,-8263.398,-8281.5205,-8285.068,-8263.816,-8257.26,-8293.887,-8348.589,-8323.533,-8259.509,-8212.637,-8223.967,-8255.742,-8243.591,-8241.981,-8237.279,-8244.577,-8257.635,-8267.599,-8305.359,-8287.814,-8253.521,-8274.784,-8316.341,-8355.546,-8391.146,-8407.792,-8384.525,-8379.133,-8389.79,-8405.531,-8407.202,-8301.81,-8185.687,-8180.734,-8228.454,-8237.41,-8224.592,-8234.417,-8223.943,-8213.675,-8237.124,-8257.806,-8261.845,-8305.161,-8406.802,-8434.787,-8358.112,-8309.094,-8300.801,-8274.869,-8268.169,-8267.759,-8253.879,-8273.276,-8273.188,-8258.57,-8259.982,-8259.724,-8285.931,-8309.662,-8354.378,-8392.317,-8373.205,-8359.023,-8326.351,-8296.927,-8283.067,-8265.278,-8280.502,-8270.297,-8251.163,-8252.154,-8240.247,-8260.805,-8293.854,-8301.23,-8276.112,-8247.721,-8291.36,-8333.599,-8323.48,-8342.647,-8356.588,-8317.86,-8272.458,-8220.594,-8207.856,-8324.726,-8471.57,-8504.043,-8422.408,-8304.26,-8265.966,-8292.289,-8287.07,-8272.317,-8264.207,-8268.078,-8324.422,-8385.994,-8373.915,-8288.383,-8212.626,-8216.11,-8220.428,-8190.302,-8209.284,-8252.433,-8278.607,-8290.301,-8286.918,-8293.825,-8291.789,-8282.154,-8285.599,-8292.734,-8318.535,-8350.684,-8358.641,-8355.301,-8381.146,-8418.427,-8399.331,-8344.314,-8307.632,-8277.631,-8247.589,-8241.055,-8269.213,-8317.272,-8361.906,-8358.822,-8295.635,-8268.009,-8280.112,-8265.456,-8264.621,-8258.852,-8239.354,-8244.929,-8245.375,-8239.21,-8230.415,-8242.139,-8264.188,-8238.026,-8207.029,-8219.863,-8290.773,-8356.497,-8323.226,-8282.529,-8301.2705,-8313.774,-8311.022,-8307.561,-8296.316,-8280.357,-8276.742,-8298.292,-8329.232,-8311.551,-8248.042,-8244.669,-8288.403,-8310.91,-8353.208,-8374.1875,-8319.412,-8267.019,-8227.437,-8185.6904,-8216.826,-8286.218,-8306.224,-8306.96,-8301.4795,-8280.654,-8286.8545,-8308.3955,-8307.205,-8297.331,-8268.215,-8230.416,-8264.738,-8351.622,-8346.538,-8256.673,-8247.935,-8313.886,-8359.683,-8359.227,-8292.918,-8257.326,-8290.898,-8284.595,-8263.558,-8275.691,-8289.399,-8303.989,-8304.588,-8280.032,-8239.663,-8218.89,-8228.21,-8231.816,-8231.792,-8209.404,-8225.647,-8325.04,-8373.877,-8341.443,-8279.162,-8257.404,-8331.219,-8388.268,-8379.38,-8362.649,-8346.38,-8304.534,-8247.154,-8234.161,-8236.994,-8223.065,-8226.597,-8236.047,-8239.931,-8239.551,-8244.073,-8243.044,-8236.913,-8300.308,-8406.066,-8423.28,-8357.609,-8316.664,-8275.188,-8224.997,-8255.454,-8277.739,-8252.117,-8261.742,-8270.215,-8276.544,-8286.301,-8287.528,-8297.831,-8300.233,-8299.163,-8274.555,-8243.53,-8247.359,-8260.258,-8297.125,-8351.751,-8369.194,-8371.903,-8380.579,-8311.956,-8221.417,-8234.935,-8260.038,-8265.815,-8283.117,-8277.908,-8308.542,-8380.009,-8409.522,-8380.332,-8371.182,-8391.801,-8353.808,-8268.486,-8215.907,-8218.367,-8215.273,-8224.536,-8287.547,-8313.337,-8301.401,-8323.561,-8356.536,-8348.856,-8325.64,-8314.423,-8285.843
