SampleData
0.0,-5218.136,-14410.482,-7989.7515,942.63184,-8523.612,-6746.06,-2352.6047,-9086.2295,-4337.786,-6109.866,-8005.7427,-4545.686,-8610.48,-5804.6025,-6924.7603,-7565.58,-5468.5615,-7805.887,-5401.4624,-6577.418,-6097.0996,-5258.284,-6455.2285,-4863.9214,-6136.1694,-5420.4756,-5664.506,-6214.71,-5611.9194,-6664.1045,-6084.5806,-6692.6167,-6722.025,-6599.973,-7040.4717,-6529.255,-6893.8726,-6499.891,-6435.694,-6373.2095,-5961.894,-6060.528,-5689.7026,-5760.7407,-5675.2544,-5675.868,-5868.03,-5826.545,-6104.1606,-6155.247,-6338.746,-6469.188,-6485.652,-6612.4336,-6534.6577,-6550.454,-6444.1787,-6343.7876,-6277.1704,-6138.269,-6102.0293,-5977.6255,-5940.7344,-5941.507,-5929.5205,-5985.7085,-6012.2695,-6090.2446,-6178.4194,-6297.7524,-6378.7544,-6404.936,-6479.5015,-6483.0786,-6456.0117,-6434.2656,-6372.357,-6282.8735,-6172.4624,-6084.465,-5987.062,-5894.964,-5851.253,-5830.888,-5846.2197,-5884.986,-5931.5957,-6005.722,-6105.7837,-6211.0293,-6300.594,-6375.307,-6439.301,-6480.702,-6502.468,-6493.9434,-6431.7676,-6345.524,-6252.2324,-6155.461,-6080.5923,-6017.9854,-5977.6396,-5960.6113,-5949.9854,-5977.7705,-6026.606,-6069.215,-6130.762,-6207.0396,-6272.5625,-6314.356,-6345.586,-6363.672,-6351.52,-6325.476,-6289.671,-6242.5513,-6189.211,-6129.2456,-6072.5503,-6027.4653,-6000.7563,-5991.155,-5998.988,-6030.7188,-6068.2144,-6096.965,-6134.034,-6181.621,-6229.834,-6280.821,-6306.26,-6302.792,-6309.2246,-6307.8125,-6282.7896,-6254.104,-6223.443,-6192.573,-6158.2056,-6120.3584,-6092.7466,-6072.2266,-6052.1953,-6059.387,-6095.9966,-6130.177,-6178.4688,-6236.627,-6267.033,-6275.537,-6289.3154,-6305.388,-6282.817,-6246.7314,-6231.0825,-6196.327,-6154.2046,-6131.4116,-6110.3247,-6099.3496,-6105.9976,-6113.583,-6121.8784,-6124.3765,-6113.693,-6121.1875,-6149.202,-6167.7134,-6191.8594,-6218.4595,-6221.916,-6225.59,-6225.341,-6209.266,-6201.0024,-6192.538,-6183.5986,-6178.8086,-6172.7686,-6179.6587,-6196.395,-6207.5596,-6221.497,-6273.0254,-6312.7466,-6277.3403,-6249.173,-6235.2173,-6199.7393,-6196.751,-6192.156,-6174.8643,-6172.1587,-6159.142,-6160.461,-6185.0767,-6195.9634,-6185.0635,-6171.9307,-6163.609,-6166.3887,-6169.51,-6168.3916,-6174.2695,-6154.4336,-6143.385,-6153.3687,-6150.139,-6159.3647,-6156.661,-6153.3154,-6158.4634,-6153.427,-6155.098,-6149.9165,-6157.0645,-6157.9136,-6150.8296,-6168.341,-6176.082,-6185.977,-6191.2344,-6193.3223,-6215.73,-6211.06,-6185.5806,-6177.6,-6186.614,-6187.8066,-6173.464,-6170.7876,-6177.2524,-6181.7173,-6177.7695,-6169.9136,-6171.3096,-6175.714,-6184.2715,-6206.6167,-6237.8213,-6258.388,-6273.2764,-6283.658,-6286.1006,-6283.182,-6251.1064,-6210.41,-6162.48,-6103.3843,-6077.148,-6064.5566,-6068.1963,-6093.3125,-6106.089,-6118.446,-6131.3066,-6140.501,-6146.313,-6146.4565,-6145.7393,-6144.786,-6143.703,-6130.3394,-6120.761,-6129.2236,-6139.148,-6144.42,-6143.773,-6153.718,-6172.854,-6169.502,-6156.255,-6175.9487,-6205.307,-6194.7393,-6177.355,-6177.729,-6174.7744,-6173.924,-6170.258,-6162.2344,-6162.66,-6160.667,-6154.188,-6157.458,-6158.6064,-6146.383,-6144.9077,-6168.3286,-6184.893,-6168.7246,-6162.7944,-6175.2876,-6178.6895,-6215.639,-6261.0547,-6262.128,-6255.685,-6255.9966,-6251.1504,-6231.713,-6219.7686,-6225.2812,-6206.659,-6176.685,-6144.959,-6120.5923,-6118.0117,-6104.0684,-6096.555,-6097.2266,-6095.866,-6100.8022,-6093.24,-6095.058,-6101.81,-6116.8574,-6149.147,-6166.35,-6188.4995,-6207.043,-6211.374,-6212.5503,-6205.8423,-6210.339,-6201.329,-6187.681,-6189.9355,-6180.391,-6176.1187,-6168.4653,-6164.075,-6171.288,-6158.7046,-6162.483,-6168.594,-6159.228,-6180.3955,-6206.1396,-6219.804,-6230.734,-6229.213,-6218.455,-6210.728,-6203.7827,-6178.357,-6154.8594,-6139.6885,-6123.6606,-6113.966,-6101.29,-6091.4136,-6086.2417,-6085.463,-6089.472,-6103.8237,-6121.7007,-6130.5913,-6151.4004,-6170.362,-6191.338,-6210.1284,-6203.934,-6212.45,-6218.3765,-6211.6025,-6223.562,-6237.6143,-6243.4414,-6234.3926,-6217.3613,-6182.8027,-6149.7646,-6157.6577,-6146.281,-6130.427,-6152.408,-6163.0356,-6173.2974,-6188.3667,-6199.305,-6210.121,-6202.196,-6198.7876,-6204.3228,-6199.9644,-6187.5356,-6165.1084,-6141.765,-6119.8457,-6103.1313,-6096.202,-6090.1475,-6092.0176,-6103.385,-6114.877,-6126.9067,-6136.64,-6147.4663,-6169.5474,-6186.14,-6191.8574,-6202.9097,-6205.6797,-6203.7134,-6198.636,-6194.3267,-6223.0146,-6237.718,-6219.1313,-6223.8716,-6226.455,-6200.2476,-6185.007,-6185.569,-6171.6587,-6151.638,-6146.916,-6146.246,-6150.51,-6158.754,-6156.9478,-6159.361,-6164.053,-6149.595,-6129.0254,-6126.1577,-6129.028,-6123.843,-6117.1445,-6104.2573,-6097.6167,-6110.327,-6122.184,-6118.0596,-6123.0405,-6147.178,-6155.039,-6173.1704,-6202.0127,-6198.821,-6200.393,-6203.2476,-6194.23,-6184.154,-6163.7393,-6159.638,-6166.07,-6160.3555,-6147.2373,-6136.18,-6131.0454,-6123.182,-6121.553,-6131.5947,-6153.507,-6171.379,-6174.705,-6188.032,-6204.9746,-6217.101,-6225.301,-6221.2783,-6211.8203,-6196.5405,-6187.259,-6190.503,-6194.131,-6193.887,-6179.446,-6170.4634,-6173.764,-6159.299,-6141.3125,-6142.695,-6157.8013,-6164.7524,-6162.8306,-6179.1406,-6197.3057,-6198.669,-6203.268,-6206.268,-6197.1777,-6193.9985,-6187.089,-6167.289,-6149.1445,-6128.851,-6115.7485,-6109.651,-6102.048,-6099.5137,-6103.2246,-6113.7256,-6115.698,-6121.1313,-6142.2915,-6157.7314,-6168.109,-6178.013,-6190.13,-6190.556,-6176.5835,-6173.2207,-6170.014,-6156.749,-6143.292,-6136.9487,-6133.569,-6126.691,-6121.5176,-6120.2896,-6130.7686,-6147.922,-6173.1895,-6208.226,-6220.085,-6206.505,-6190.893,-6190.3667,-6192.897,-6175.6006,-6173.2417,-6185.588,-6176.74,-6167.405,-6172.3003,-6177.9414,-6176.3633,-6167.2666,-6160.7886,-6181.2866,-6197.7563,-6184.206,-6195.939,-6194.8013,-6170.223,-6184.7935,-6185.3755,-6175.766,-6186.9326,-6189.3247,-6184.9023,-6167.8135,-6150.9126,-6144.1973,-6145.7524,-6161.0933,-6170.436,-6164.971,-6159.417,-6161.911,-6157.5186,-6160.025,-6188.2227,-6208.48,-6217.842,-6243.9253,-6242.7744,-6199.255,-6199.8174,-6212.5845,-6181.8423,-6173.0156,-6167.536,-6145.587,-6142.42,-6149.1772,-6158.8135,-6157.0566,-6150.687,-6164.1475,-6177.3867,-6171.374,-6186.7544,-6219.5835,-6207.27,-6186.1245,-6192.5317,-6196.5547,-6195.7065,-6189.1587,-6187.523,-6197.315,-6203.8574,-6207.126,-6204.7676,-6192.153,-6179.4277,-6179.565,-6182.8213,-6183.979,-6189.919,-6193.2974,-6190.697,-6182.7725,-6180.385,-6180.471,-6173.1284,-6172.8257,-6167.468,-6161.3975,-6175.1807,-6188.671,-6193.712,-6194.1475,-6200.879,-6210.486,-6200.219,-6183.526,-6166.8296,-6143.8037,-6133.1494,-6135.425,-6128.971,-6129.1416,-6140.4624,-6138.882,-6148.9023,-6163.0967,-6164.5015,-6175.3833,-6171.0728,-6164.4785,-6180.1597,-6186.608,-6189.686,-6199.2456,-6199.209,-6194.2583,-6187.9497,-6180.657,-6186.114,-6183.1616,-6165.8384,-6165.0405,-6165.4043,-6165.069,-6170.8936,-6169.4526,-6170.2036,-6177.5005,-6191.3374,-6196.98,-6185.869,-6172.358,-6174.2876,-6186.8193,-6178.3115,-6172.367,-6173.104,-6165.2334,-6179.201,-6195.02,-6198.3213,-6199.8687,-6206.718,-6218.0347,-6208.364,-6195.071,-6183.4814,-6166.1846,-6166.0806,-6180.1626,-6193.772,-6202.96,-6211.765,-6206.186,-6182.4365,-6164.8667,-6154.6113,-6148.81,-6141.193,-6135.078,-6141.1445,-6142.8467,-6147.318,-6159.2466,-6168.585,-6178.1895,-6173.824,-6172.0854,-6183.0713,-6180.043,-6180.1333,-6189.7397,-6197.785,-6210.4487,-6211.0415,-6207.0654,-6205.323,-6201.2627,-6224.213,-6242.2944,-6233.643,-6239.534,-6243.1636,-6242.8926,-6241.547,-6207.268,-6170.26,-6158.331,-6162.33,-6163.998,-6156.1543,-6160.107,-6162.047,-6157.8716,-6160.6797,-6160.954,-6164.9097,-6158.43,-6142.0615,-6135.0674,-6137.094,-6147.201,-6149.798,-6171.8794,-6201.4424,-6195.836,-6206.429,-6229.283,-6243.701,-6262.4004,-6249.0786,-6225.371,-6218.7197,-6210.2983,-6197.0566,-6180.221,-6175.184,-6167.6846,-6148.8774,-6146.3247,-6153.7236,-6164.4736,-6164.637,-6156.807,-6167.9287,-6176.0527,-6173.5845,-6163.335,-6157.49,-6166.08,-6161.59,-6165.1655,-6170.686,-6163.7476,-6172.3105,-6172.134,-6161.2617,-6164.354,-6179.2056,-6192.089,-6198.705,-6199.845,-6183.79,-6172.191,-6177.053,-6173.7764,-6156.8955,-6150.9404,-6156.8,-6158.239,-6164.2817,-6167.0864,-6178.224,-6189.4688,-6184.609,-6193.2993,-6192.956,-6185.8315,-6183.957,-6171.194,-6171.683,-6178.723,-6179.182,-6177.8877,-6188.64,-6205.8057,-6205.236,-6213.896,-6220.102,-6207.715,-6204.089,-6203.814,-6207.056,-6200.679,-6198.9,-6220.5347,-6203.569,-6172.7446,-6172.736,-6156.537,-6146.1123,-6139.6455,-6117.469,-6122.905,-6125.548,-6126.8955,-6138.318,-6136.669,-6151.1743,-6147.7275,-6135.3335,-6152.258,-6164.5254,-6174.7744,-6171.4937,-6164.764,-6177.9956,-6197.504,-6217.202,-6218.2104,-6213.7036,-6212.536,-6211.651,-6217.7563,-6215.088,-6211.1396,-6202.1426,-6191.02,-6194.0615,-6195.1987,-6196.379,-6202.027,-6221.377,-6245.779,-6246.536,-6245.2427,-6236.6235,-6218.052,-6219.8354,-6204.957,-6174.7876,-6164.139,-6146.304,-6129.3804,-6134.0737,-6144.9688,-6148.2246,-6150.075,-6161.0566,-6168.1904,-6181.4575,-6200.1455,-6207.5356,-6219.448,-6224.5063,-6220.0474,-6215.376,-6198.492,-6186.739,-6176.572,-6159.1406,-6166.118,-6185.475,-6187.9316,-6192.35,-6202.236,-6192.4946,-6175.072,-6175.612,-6177.5117,-6167.053,-6158.1016,-6153.2993,-6158.2437,-6166.3857,-6153.8145,-6147.3896,-6164.0347,-6177.207,-6192.014,-6212.6265,-6228.94,-6234.276,-6227.723,-6219.538,-6210.736,-6204.3096,-6193.823,-6175.4272,-6158.181,-6141.259,-6140.161,-6155.311,-6154.7593,-6144.483,-6152.2056,-6162.205,-6166.5376,-6182.854,-6203.946,-6218.3735,-6221.413,-6224.3843,-6229.33,-6229.7544,-6229.1035,-6216.3076,-6208.1997,-6198.807,-6180.3813,-6180.1577,-6186.339,-6204.2935,-6227.3994,-6234.7876,-6235.899,-6246.2544,-6277.0723,-6310.9385,-6355.096,-6381.422,-6367.0933,-6351.4,-6329.0195,-6319.9263,-6299.0303,-6253.7505,-6272.5615,-6305.1733,-6272.1084,-6230.346,-6217.947,-6181.476,-6129.901,-6120.4546,-6109.6406,-6096.3857,-6093.9146,-6080.0454,-6091.8613,-6117.3,-6125.508,-6128.042,-6141.446,-6153.5894,-6159.1377,-6175.2925,-6173.0024,-6184.0244,-6216.014,-6209.7666,-6201.199,-6200.4106,-6190.556,-6183.232,-6176.7725,-6177.0146,-6171.35,-6166.4414,-6168.302,-6164.347,-6165.631,-6166.4033,-6162.787,-6164.292,-6165.582,-6165.2944,-6174.02,-6187.485,-6194.127,-6203.5723,-6209.142,-6214.2764,-6232.1704,-6235.0303,-6228.1626,-6232.403,-6227.7153,-6204.695,-6185.0137,-6183.0356,-6184.9946,-6189.298,-6202.557,-6211.103,-6206.332,-6200.816,-6196.1826,-6192.152,-6193.572,-6185.528,-6182.629,-6192.028,-6198.2285,-6194.8667,-6173.5195,-6162.0537,-6159.3706,-6155.316,-6155.8804,-6148.9595,-6153.0156,-6159.4453,-6167.2246,-6186.421,-6198.6787,-6211.06,-6208.2505,-6198.604,-6203.8027,-6198.457,-6191.6416,-6197.98,-6204.811,-6196.046,-6178.825,-6179.73,-6177.214,-6169.139,-6174.0767,-6173.6743,-6180.6235,-6187.925,-6179.2764,-6182.7715,-6191.946,-6196.424,-6208.244,-6223.3096,-6229.562,-6239.773,-6275.106,-6294.604,-6286.386,-6272.982,-6233.007,-6205.6343,-6195.194,-6166.9277,-6163.0107,-6163.649,-6156.243,-6170.5474,-6181.3745,-6180.848,-6172.3135,-6162.8804,-6149.8477,-6135.713,-6150.9697,-6164.579,-6159.1616,-6174.5933,-6202.369,-6216.7944,-6225.0786,-6245.54,-6275.5396,-6291.586,-6298.5156,-6306.633,-6304.742,-6288.5576,-6258.3643,-6236.851,-6233.6333,-6218.831,-6194.4067,-6178.441,-6173.9263,-6176.253,-6179.277,-6203.9,-6236.4956,-6245.2095,-6264.8066,-6291.155,-6288.811,-6271.1304,-6237.93,-6216.6836,-6228.452,-6216.9663,-6189.395,-6200.7637,-6207.4795,-6186.186,-6188.205,-6197.615,-6192.8936,-6183.222,-6157.925,-6147.2153,-6155.7646,-6149.3,-6148.842,-6160.802,-6174.745,-6178.6694,-6159.646,-6161.338,-6165.193,-6146.838,-6150.6533,-6157.5195,-6152.9385,-6153.9517,-6166.063,-6176.6367,-6179.474,-6194.085,-6202.974,-6208.0156,-6204.5234,-6182.764,-6185.949,-6207.5796,-6219.214,-6219.2085,-6223.1523,-6224.4126,-6201.814,-6200.688,-6226.13,-6248.683,-6252.9585,-6226.3794,-6209.889,-6192.059,-6168.1,-6152.251,-6130.948,-6144.7393,-6153.855,-6146.56,-6157.7583,-6157.3477,-6177.0674,-6186.8135,-6167.949,-6167.901,-6159.261,-6151.657,-6161.1206,-6173.851,-6194.6367,-6212.751,-6213.2383,-6210.6616,-6200.216,-6169.598,-6155.0444,-6148.289,-6144.2354,-6147.9214,-6138.5547,-6138.1646,-6137.5996,-6133.3394,-6132.1333,-6126.8184,-6128.3394,-6124.598,-6133.128,-6151.939,-6155.7466,-6167.5693,-6189.1494,-6205.215,-6205.0503,-6192.5,-6201.148,-6216.755,-6203.6113,-6195.852,-6203.227,-6189.674,-6174.821,-6187.805,-6208.966,-6210.0923,-6201.6514,-6191.2236,-6182.5967,-6191.403,-6182.0757,-6158.2085,-6147.9185,-6126.071,-6115.701,-6137.091,-6168.8804,-6188.036,-6183.9966,-6187.2056,-6191.0337,-6173.9106,-6157.857,-6146.6016,-6134.625,-6129.172,-6116.4873
-6092.125,-6092.4033,-6110.2163,-6111.076,-6119.2646,-6140.459,-6145.4927,-6149.628,-6165.3013,-6174.319,-6177.787,-6176.3374,-6164.5786,-6148.146,-6137.5527,-6134.476,-6127.1157,-6126.5107,-6128.154,-6126.3335,-6146.7183,-6168.4473,-6183.909,-6222.495,-6266.3853,-6263.0127,-6227.613,-6215.829,-6178.5215,-6128.182,-6111.4565,-6070.5967,-6044.373,-6046.5376,-6045.7256,-6060.706,-6052.384,-6039.674,-6041.1206,-6035.5396,-6041.1055,-6052.0566,-6074.268,-6079.3506,-6044.193,-6018.9014,-6002.6826,-5982.405,-5974.8315,-5973.99,-5977.6987,-5988.623,-6008.9053,-6025.1777,-6017.64,-6021.8423,-6031.5376,-5986.614,-5946.5127,-5960.3604,-5968.5073,-5976.6006,-6006.9297,-6017.556,-5991.825,-5969.569,-5948.6157,-5891.9565,-5849.4443,-5846.464,-5848.574,-5853.5703,-5863.079,-5873.4443,-5868.796,-5864.451,-5869.3394,-5865.8384,-5859.855,-5848.7837,-5838.863,-5817.346,-5805.668,-5829.815,-5843.568,-5869.551,-5904.6753,-5892.195,-5886.7666,-5952.7095,-6040.5454,-6074.0425,-6072.389,-6055.7954,-5995.534,-5918.4507,-5855.929,-5819.1597,-5828.8477,-5857.1235,-5858.9834,-5837.2905,-5801.8174,-5761.0166,-5753.913,-5783.6587,-5792.7866,-5769.133,-5761.937,-5764.5254,-5746.08,-5741.19,-5743.3057,-5747.2314,-5770.8247,-5768.7007,-5769.6045,-5784.133,-5780.029,-5785.699,-5778.1025,-5769.2905,-5771.212,-5762.738,-5768.9277,-5782.586,-5799.782,-5802.514,-5787.676,-5778.865,-5766.671,-5771.7285,-5782.779,-5781.959,-5782.0293,-5774.3145,-5765.7812,-5755.523,-5749.533,-5753.6675,-5749.683,-5745.985,-5750.585,-5741.1113,-5726.7354,-5736.2183,-5748.053,-5739.435,-5704.765,-5691.7036,-5755.776,-5831.1055,-5867.369,-5893.6978,-5912.7163,-5900.9883,-5885.2573,-5872.4927,-5821.1543,-5788.3076,-5781.093,-5756.4097,-5743.941,-5726.246,-5698.0425,-5657.147,-5624.9683,-5640.6133,-5644.2383,-5629.8677,-5643.8086,-5668.938,-5672.898,-5679.4136,-5711.6963,-5718.5093,-5708.309,-5718.5693,-5726.701,-5730.7354,-5739.2393,-5749.098,-5750.1455,-5741.629,-5731.7456,-5724.7017,-5735.0483,-5732.732,-5705.156,-5701.6426,-5709.571,-5702.731,-5684.7217,-5673.932,-5688.2515,-5687.1875,-5682.455,-5697.3833,-5702.166,-5707.75,-5715.4976,-5729.041,-5752.04,-5764.981,-5770.8477,-5777.227,-5781.23,-5756.8906,-5729.277,-5736.269,-5743.5176,-5741.1387,-5749.2104,-5778.8774,-5805.028,-5806.3223,-5805.8315,-5819.9277,-5833.639,-5806.941,-5782.615,-5780.1343,-5756.8066,-5736.4087,-5716.6865,-5714.954,-5719.3555,-5722.5947,-5756.5347,-5758.915,-5778.837,-5793.778,-5734.93,-5736.3755,-5735.762,-5688.614,-5689.8,-5675.8726,-5682.2173,-5736.619,-5776.6025,-5800.7344,-5799.6074,-5809.4604,-5817.9546,-5813.2314,-5825.2256,-5814.2637,-5799.9214,-5789.589,-5778.5103,-5784.8115,-5773.3335,-5771.312,-5772.7764,-5761.0093,-5769.105,-5769.9575,-5783.2725,-5803.943,-5804.21,-5810.7314,-5820.1357,-5850.158,-5884.057,-5911.7217,-5938.3633,-5919.9136,-5907.024,-5926.1445,-5912.4946,-5876.281,-5866.946,-5879.817,-5877.2974,-5863.8354,-5859.721,-5840.014,-5815.6377,-5828.673,-5835.005,-5826.075,-5845.847,-5865.483,-5897.7017,-5929.282,-5907.8975,-5881.518,-5876.201,-5895.6777,-5933.0396,-5963.5034,-6014.342,-6044.354,-6024.4424,-6012.852,-5987.3228,-5951.11,-5923.8887,-5864.262,-5837.5093,-5855.2554,-5849.6313,-5837.3276,-5831.187,-5848.8604,-5854.041,-5829.527,-5824.642,-5828.739,-5861.415,-5919.7705,-5958.3804,-5957.136,-5945.1934,-5961.752,-5965.029,-5963.7407,-6000.1816,-6062.394,-6072.8984,-6016.221,-5979.867,-5926.9233,-5877.5894,-5859.848,-5829.5864,-5838.402,-5833.1016,-5818.3735,-5836.258,-5840.726,-5845.0195,-5835.289,-5851.88,-5872.4355,-5865.67,-5896.2407,-5923.671,-5935.867,-5945.353,-5966.0083,-6002.0205,-6023.9453,-6043.275,-6053.1973,-6068.661,-6071.5713,-6047.2383,-6017.157,-5987.573,-5974.983,-5944.103,-5904.5093,-5885.6777,-5897.7324,-5895.756,-5861.855,-5944.1255,-6070.926,-6107.038,-6117.636,-6107.5347,-6067.8955,-5989.719,-5908.5933,-5884.2563,-5893.296,-5901.388,-5886.7163,-5884.4595,-5889.283,-5871.7417,-5869.413,-5870.6353,-5872.585,-5901.0034,-5936.3125,-5971.8745,-5999.9146,-6010.0933,-6002.725,-5971.4478,-5969.3984,-6001.229,-6000.5703,-5984.8525,-5968.994,-5955.582,-5950.8716,-5954.7534,-5982.866,-5981.1104,-5954.5576,-5934.0537,-5891.9604,-5868.986,-5864.3384,-5862.4297,-5868.508,-5865.508,-5878.2236,-5885.5396,-5882.433,-5896.7573,-5906.6797,-5925.4165,-5951.085,-5961.082,-5987.258,-6028.693,-6051.3994,-6085.592,-6118.5605,-6105.3745,-6099.51,-6082.194,-6025.545,-5987.551,-5954.1514,-5925.6187,-5906.1685,-5912.52,-5943.304,-5917.615,-5906.7173,-5930.595,-5920.3457,-5959.0483,-6000.8315,-5980.891,-5965.928,-5930.034,-5901.122,-5892.381,-5861.141,-5872.8486,-5879.0884,-5875.3247,-5923.0933,-5918.9756,-5908.4966,-5937.2085,-5926.168,-5932.004,-5955.9985,-5956.2954,-5959.101,-5960.365,-5968.693,-5985.1797,-5976.408,-5964.887,-6008.391,-6079.8354,-6107.776,-6085.7085,-6066.854,-6064.129,-6032.496,-5987.3013,-5948.8936,-5916.9546,-5905.292,-5885.737,-5882.0996,-5901.2314,-5906.3853,-5917.043,-5915.8057,-5922.9214,-5962.7007,-6008.3076,-6036.97,-6029.886,-6078.31,-6155.6963,-6218.6113,-6395.2573,-6567.4834,-6590.8403,-6516.326,-6338.9424,-6121.612,-5992.822,-5949.477,-5931.6323,-5949.099,-5977.3823,-5983.7856,-5992.742,-5968.2236,-5918.893,-5904.7817,-5887.265,-5846.3535,-5829.9414,-5839.222,-5853.578,-5891.854,-5957.4033,-6011.868,-6055.7817,-6099.2217,-6100.632,-6060.6157,-6022.192,-5982.6304,-5945.1094,-5923.593,-5879.781,-5842.5444,-5840.357,-5822.3823,-5811.005,-5799.0596,-5773.578,-5763.559,-5752.9595,-5750.7544,-5758.422,-5774.784,-5797.3887,-5825.102,-5863.5864,-5890.2397,-5918.58,-5944.6343,-5956.0244,-5967.9116,-5982.37,-6004.9233,-6007.0513,-5989.6504,-5979.053,-5951.581,-5929.0405,-5929.7754,-5897.2446,-5834.426,-5805.4517,-5788.57,-5753.4756,-5756.887,-5810.7173,-5889.1475,-5960.946,-5989.144,-5996.467,-5982.622,-5933.9717,-5870.8076,-5813.8496,-5787.522,-5770.757,-5730.8433,-5698.3384,-5704.3086,-5715.7974,-5717.652,-5737.0605,-5773.1484,-5798.511,-5809.4126,-5847.3003,-5884.8174,-5899.344,-5938.9014,-5949.588,-5916.4673,-5910.815,-5909.674,-5872.9834,-5846.717,-5876.404,-5903.436,-5887.996,-5848.9453,-5799.7256,-5802.4097,-5848.0117,-5862.047,-5894.2256,-5943.1855,-5924.5103,-5875.961,-5819.2144,-5767.536,-5726.4326,-5691.134,-5712.5684,-5715.1035,-5712.086,-5731.28,-5715.3364,-5722.58,-5739.0425,-5794.3486,-5862.9585,-5911.215,-6007.9727,-6042.324,-6035.0674,-6050.6523,-5987.9263,-5867.085,-5781.5996,-5729.5605,-5693.7617,-5721.2866,-5740.2456,-5719.481,-5734.6826,-5735.461,-5712.1797,-5697.6187,-5685.93,-5674.9375,-5656.133,-5637.2695,-5611.6797,-5604.488,-5638.732,-5667.8516,-5685.502,-5724.506,-5768.4956,-5800.2397,-5829.9634,-5879.156,-5953.6904,-5995.7144,-6008.5986,-6027.803,-5987.6216,-5916.9824,-5884.5713,-5808.99,-5687.4663,-5624.245,-5630.7354,-5668.2046,-5679.677,-5651.4395,-5640.082,-5632.2305,-5625.5693,-5634.9634,-5649.2446,-5692.6035,-5727.085,-5747.6646,-5751.2793,-5717.874,-5709.8906,-5693.182,-5665.6104,-5657.209,-5632.7827,-5619.695,-5616.766,-5628.3193,-5646.3413,-5651.0225,-5665.526,-5667.757,-5674.157,-5697.691,-5709.5327,-5717.1094,-5724.9336,-5727.224,-5723.5674,-5730.022,-5735.9937,-5727.197,-5714.972,-5705.798,-5697.9365,-5658.2666,-5628.81,-5636.592,-5625.491,-5630.817,-5654.639,-5658.8965,-5650.589,-5621.3354,-5565.108,-5502.916,-5487.9116,-5483.087,-5476.2515,-5495.4204,-5481.9155,-5481.821,-5505.0757,-5514.17,-5516.4824,-5489.4575,-5504.021,-5526.91,-5511.225,-5526.4414,-5532.6514,-5525.744,-5517.121,-5516.245,-5530.898,-5505.89,-5491.2373,-5473.4824,-5445.474,-5477.1924,-5503.904,-5521.214,-5515.5176,-5504.5186,-5551.175,-5552.7905,-5558.862,-5584.17,-5549.755,-5522.2427,-5481.8433,-5477.4844,-5476.0093,-5426.5786,-5463.997,-5473.4707,-5435.652,-5455.0493,-5447.211,-5429.923,-5411.64,-5380.691,-5354.0615,-5324.575,-5315.98,-5307.81,-5294.8286,-5280.708,-5277.708,-5298.452,-5321.958,-5355.471,-5385.979,-5414.3076,-5446.661,-5455.976,-5455.2075,-5485.3647,-5529.1025,-5532.8804,-5522.732,-5528.3643,-5546.882,-5560.9385,-5523.4185,-5463.58,-5402.2153,-5343.936,-5316.0923,-5287.5527,-5279.523,-5297.7383,-5315.0005,-5341.7407,-5361.425,-5391.8057,-5402.468,-5390.145,-5413.8213,-5425.562,-5420.594,-5413.0063,-5392.913,-5388.15,-5388.799,-5394.63,-5414.803,-5445.8525,-5463.0117,-5473.195,-5510.828,-5539.6655,-5563.05,-5594.3516,-5595.377,-5561.4873,-5514.0747,-5475.1406,-5445.279,-5429.491,-5422.2925,-5415.6255,-5417.209,-5412.3677,-5417.0117,-5439.169,-5454.4106,-5465.4297,-5478.0723,-5486.351,-5484.3726,-5493.526,-5516.4023,-5528.032,-5552.795,-5583.726,-5583.636,-5568.2534,-5536.403,-5512.086,-5526.556,-5530.746,-5522.685,-5529.2554,-5538.132,-5547.483,-5550.9326,-5549.4526,-5547.0093,-5570.378,-5603.7188,-5578.214,-5536.8027,-5520.9927,-5503.422,-5474.2466,-5454.2134,-5472.3755,-5484.923,-5494.9917,-5520.5205,-5527.658,-5540.2734,-5552.3184,-5565.168,-5585.194,-5588.2397,-5592.8784,-5596.2363,-5588.73,-5567.5767,-5535.842,-5517.2974,-5526.619,-5555.6646,-5582.843,-5607.8096,-5610.661,-5587.2803,-5566.617,-5578.409,-5630.068,-5649.6787,-5646.9253,-5659.9644,-5645.286,-5642.624,-5681.804,-5711.9043,-5701.714,-5676.3325,-5638.3706,-5579.4365,-5532.844,-5485.399,-5481.299,-5502.4736,-5489.688,-5506.878,-5525.373,-5559.707,-5598.121,-5576.0464,-5586.3887,-5629.3525,-5649.1816,-5650.88,-5658.6523,-5657.8247,-5619.9346,-5587.0674,-5542.758,-5517.5723,-5523.4854,-5501.9365,-5503.8813,-5520.44,-5527.8057,-5548.023,-5552.308,-5544.5273,-5534.397,-5526.824,-5528.6587,-5519.0474,-5506.04,-5506.7603,-5506.895,-5519.68,-5566.407,-5633.064,-5692.2036,-5703.288,-5691.995,-5703.447,-5710.96,-5731.8613,-5749.29,-5691.9062,-5626.0254,-5597.323,-5551.7983,-5512.3945,-5500.9443,-5506.069,-5511.4307,-5494.592,-5490.19,-5490.9253,-5483.7,-5489.027,-5490.5337,-5503.76,-5519.7915,-5534.509,-5564.653,-5577.2603,-5583.2607,-5590.3306,-5590.911,-5596.257,-5598.5054,-5602.6826,-5607.8296,-5610.731,-5602.485,-5589.2876,-5594.42,-5597.0117,-5594.2144,-5599.3174,-5611.9316,-5633.438,-5652.3135,-5664.637,-5672.414,-5671.1797,-5649.419,-5634.4336,-5626.835,-5602.0615,-5619.005,-5653.879,-5657.2603,-5652.9736,-5625.5864,-5600.6426,-5599.6025,-5595.112,-5572.2925,-5550.813,-5534.9775,-5506.406,-5513.065,-5530.4263,-5535.249,-5555.1387,-5546.8257,-5556.5557,-5597.5835,-5626.939,-5678.622,-5714.83,-5707.084,-5696.2266,-5676.6577,-5652.434,-5678.83,-5705.539,-5672.1733,-5644.0366,-5602.6875,-5551.058,-5544.747,-5541.528,-5533.331,-5519.0967,-5504.293,-5514.91,-5535.489,-5546.4067,-5541.9146,-5548.7144,-5555.929,-5543.2593,-5539.7603,-5539.977,-5536.1123,-5543.091,-5549.0234,-5555.443,-5572.442,-5583.304,-5585.6455,-5581.4023,-5587.6885,-5613.127,-5622.7354,-5624.6978,-5640.524,-5658.815,-5669.276,-5666.0586,-5673.98,-5701.44,-5706.0654,-5701.572,-5705.8096,-5696.2617,-5726.8003,-5775.298,-5754.481,-5704.639,-5629.739,-5525.307,-5476.0596,-5473.85,-5481.4673,-5507.9165,-5520.734,-5527.1807,-5539.737,-5536.295,-5535.861,-5535.835,-5524.78,-5513.9375,-5514.959,-5528.8076,-5538.78,-5552.1377,-5566.6514,-5573.6035,-5595.6875,-5624.8022,-5636.46,-5650.0967,-5660.607,-5642.954,-5621.63,-5605.734,-5602.9414,-5620.7856,-5630.2227,-5628.506,-5614.9736,-5594.355,-5571.4214,-5538.3247,-5514.6055,-5511.5435,-5531.312,-5554.831,-5593.9688,-5643.68,-5630.2476,-5609.607,-5623.651,-5609.9604,-5583.049,-5566.532,-5560.7676,-5547.022,-5529.3896,-5525.8013,-5511.912,-5505.726,-5511.6562,-5515.826,-5523.8354,-5527.57,-5528.0103,-5528.793,-5542.7856,-5550.6035,-5548.3574,-5562.9727,-5572.4097,-5575.62,-5574.4155,-5570.012,-5579.9287,-5590.6416,-5617.872,-5678.8394,-5732.7266,-5738.43,-5718.634,-5713.0195,-5723.3867,-5731.394,-5737.0605,-5768.5283,-5756.5195,-5680.282,-5625.773,-5550.508,-5492.645,-5493.6367,-5466.6226,-5449.0635,-5442.567,-5442.108,-5475.5684,-5481.77,-5478.7656,-5483.695,-5478.5244,-5472.2373,-5471.8467,-5502.906,-5523.474,-5532.0195,-5571.656,-5613.345,-5675.957,-5723.962,-5702.377,-5693.0376,-5686.1978,-5632.926,-5597.8164,-5565.72,-5521.579,-5510.592,-5487.542,-5460.134,-5464.027,-5466.891,-5473.3457,-5481.281,-5482.8423,-5480.6143,-5492.0483,-5524.4146,-5566.5786,-5621.2583,-5636.54,-5613.3823,-5597.147,-5588.3564,-5576.914,-5551.8257,-5558.432,-5582.7603,-5580.736,-5568.15,-5551.555,-5553.095,-5547.9766,-5523.8604,-5519.3154,-5534.765,-5558.385,-5558.866,-5549.3774,-5569.064,-5598.361,-5608.175,-5588.7925,-5579.0796,-5603.315,-5627.8125,-5640.539,-5652.6196,-5662.113,-5643.7183,-5592.735,-5539.06,-5511.096,-5515.7295,-5514.3306,-5491.3926,-5487.83,-5488.2803,-5458.797,-5452.47,-5482.6333,-5514.478,-5532.8394,-5519.4175,-5522.756,-5551.3877,-5579.196,-5619.4775,-5635.3516
-5622.2144,-5596.4917,-5571.413,-5554.2134,-5537.0166,-5536.842,-5533.1514,-5526.538,-5525.5757,-5534.857,-5561.2725,-5558.2646,-5543.1367,-5546.0884,-5546.4976,-5541.8037,-5540.3745,-5547.676,-5549.4644,-5552.453,-5565.0073,-5578.862,-5606.6143,-5622.101,-5609.0405,-5604.8423,-5594.8774,-5575.407,-5572.3853,-5570.5835,-5572.201,-5562.233,-5560.4077,-5587.4966,-5572.655,-5539.339,-5534.18,-5533.389,-5526.217,-5509.8223,-5506.0737,-5505.6963,-5502.4336,-5499.2764,-5500.0034,-5527.3125,-5540.1333,-5540.7954,-5539.2656,-5514.3335,-5515.078,-5525.333,-5519.238,-5528.6064,-5531.3105,-5520.4736,-5514.3345,-5517.586,-5534.937,-5544.9536,-5549.677,-5566.7593,-5577.581,-5572.843,-5563.078,-5560.1885,-5562.446,-5556.316,-5540.1914,-5541.5044,-5558.071,-5540.2534,-5535.97,-5570.899,-5585.4844,-5599.248,-5597.1177,-5589.9155,-5616.651,-5638.652,-5665.3115,-5665.9336,-5649.9165,-5650.4517,-5600.9956,-5544.2544,-5508.243,-5495.557,-5543.4478,-5572.606,-5590.52,-5613.1016,-5589.847,-5594.5796,-5580.9546,-5519.2437,-5516.3335,-5493.1567,-5453.502,-5458.9834,-5457.3364,-5481.219,-5493.8306,-5488.6,-5509.049,-5518.487,-5521.004,-5509.894,-5503.732,-5506.609,-5504.902,-5514.5664,-5518.087,-5527.6885,-5539.828,-5543.1396,-5538.6284,-5532.715,-5542.4424,-5547.93,-5551.449,-5549.483,-5541.606,-5537.8945,-5538.0063,-5549.5854,-5547.013,-5542.5054,-5545.8315,-5552.7725,-5572.68,-5576.546,-5579.1777,-5577.372,-5550.0767,-5520.508,-5505.6963,-5526.5405,-5544.8564,-5541.974,-5557.599,-5563.4575,-5555.217,-5550.4614,-5532.772,-5519.4556,-5513.8013,-5522.2295,-5541.2466,-5535.114,-5529.398,-5535.449,-5529.04,-5529.797,-5544.9854,-5542.013,-5541.594,-5567.773,-5567.1245,-5566.0234,-5575.6113,-5554.769,-5556.6406,-5549.158,-5526.157,-5531.03,-5512.189,-5509.9766,-5529.175,-5545.3027,-5583.835,-5594.364,-5597.835,-5621.4653,-5630.857,-5615.9326,-5585.8813,-5557.893,-5515.4487,-5496.928,-5506.1226,-5501.2974,-5532.1123,-5578.29,-5585.163,-5576.3535,-5571.1196,-5552.4004,-5511.0054,-5481.4014,-5482.846,-5494.8916,-5487.389,-5483.59,-5508.2207,-5515.3574,-5510.026,-5511.7383,-5506.685,-5511.034,-5515.677,-5508.875,-5515.128,-5534.2627,-5552.1216,-5580.684,-5593.197,-5566.7725,-5545.655,-5544.7705,-5575.4634,-5601.079,-5573.272,-5561.2495,-5551.481,-5513.0054,-5503.943,-5504.8794,-5502.8184,-5504.4795,-5501.784,-5513.656,-5523.5264,-5532.4062,-5550.9204,-5554.6685,-5554.6636,-5547.446,-5521.4287,-5500.733,-5493.3477,-5508.6255,-5528.701,-5531.487,-5536.8413,-5536.3984,-5528.4243,-5528.1177,-5542.0967,-5562.3076,-5573.5786,-5613.6455,-5670.309,-5710.404,-5741.7925,-5726.555,-5691.096,-5667.918,-5610.069,-5536.775,-5520.03,-5524.134,-5466.736,-5411.2134,-5395.6255,-5405.509,-5448.0566,-5469.827,-5491.686,-5505.1123,-5485.5923,-5484.4185,-5486.0723,-5489.7744,-5483.549,-5472.3945,-5493.774,-5507.727,-5510.5,-5520.726,-5551.084,-5603.458,-5614.453,-5588.3496,-5572.8755,-5542.612,-5510.4673,-5507.907,-5509.2476,-5511.0127,-5516.453,-5529.812,-5550.291,-5560.39,-5568.1567,-5577.3843,-5586.5234,-5594.385,-5619.246,-5634.86,-5612.148,-5601.0815,-5553.767,-5490.9644,-5489.574,-5472.167,-5463.7236,-5487.304,-5492.165,-5505.5396,-5510.4043,-5503.312,-5498.0776,-5470.208,-5442.9814,-5435.4785,-5433.2837,-5439.6104,-5441.3213,-5439.69,-5458.3994,-5464.721,-5477.0522,-5519.3013,-5536.64,-5546.7646,-5560.0903,-5563.164,-5574.394,-5567.723,-5552.8555,-5545.2446,-5526.568,-5506.7095,-5488.8096,-5479.525,-5487.7534,-5503.5366,-5510.4336,-5518.2485,-5549.933,-5586.109,-5628.8516,-5683.9927,-5707.681,-5703.468,-5734.5894,-5783.866,-5748.3486,-5661.2017,-5588.9346,-5506.7803,-5472.3013,-5467.9155,-5444.0054,-5449.262,-5451.594,-5450.109,-5461.1,-5457.358,-5462.3394,-5476.578,-5487.6416,-5498.0654,-5516.264,-5531.0146,-5531.4688,-5541.5254,-5554.883,-5563.8125,-5566.8066,-5561.3066,-5554.1426,-5546.5376,-5547.65,-5551.233,-5542.647,-5528.845,-5547.0728,-5574.874,-5559.954,-5542.382,-5553.214,-5558.5635,-5526.8228,-5500.123,-5502.0923,-5500.1357,-5498.955,-5487.124,-5484.256,-5498.117,-5503.3394,-5513.4385,-5529.0723,-5552.669,-5570.3613,-5580.4604,-5572.0186,-5554.714,-5550.722,-5510.3115,-5482.564,-5501.72,-5532.8345,-5595.8184,-5635.649,-5621.5244,-5613.2974,-5635.1553,-5666.8545,-5697.916,-5719.3755,-5709.524,-5678.579,-5605.147,-5541.046,-5556.944,-5549.688,-5536.6235,-5590.032,-5671.7964,-5768.384,-5846.645,-5901.3213,-5858.9956,-5730.4155,-5656.436,-5568.598,-5472.582,-5444.192,-5420.1714,-5407.1826,-5409.721,-5435.786,-5478.759,-5498.3057,-5538.918,-5557.2334,-5522.332,-5473.555,-5418.791,-5405.6426,-5382.7026,-5356.833,-5388.626,-5406.958,-5425.5938,-5458.327,-5478.555,-5496.62,-5512.221,-5540.4224,-5556.207,-5554.398,-5562.704,-5566.554,-5547.5767,-5521.7363,-5510.766,-5492.0884,-5473.8135,-5480.8916,-5478.5806,-5465.2915,-5469.9043,-5473.553,-5474.3574,-5494.466,-5537.8535,-5595.486,-5626.376,-5647.205,-5693.0396,-5708.7026,-5672.776,-5635.124,-5629.2437,-5635.5425,-5649.4067,-5647.802,-5579.556,-5514.501,-5471.299,-5394.7856,-5358.7734,-5371.8804,-5371.539,-5395.324,-5427.8394,-5435.7993,-5456.0645,-5469.2183,-5466.831,-5464.919,-5459.5425,-5463.7524,-5472.3647,-5481.487,-5475.5107,-5463.937,-5470.5605,-5470.2026,-5470.611,-5473.253,-5477.8213,-5498.3076,-5526.112,-5565.0938,-5572.626,-5556.785,-5564.848,-5554.789,-5529.303,-5511.3384,-5497.617,-5487.7983,-5478.4854,-5492.1045,-5498.6953,-5498.215,-5518.4766,-5505.8833,-5492.5015,-5532.422,-5573.9224,-5587.9355,-5585.6104,-5593.7715,-5605.589,-5583.9854,-5566.554,-5551.692,-5501.563,-5469.041,-5467.707,-5475.6514,-5473.1206,-5440.947,-5430.765,-5441.3066,-5443.7354,-5449.166,-5448.659,-5451.755,-5448.892,-5447.3516,-5472.0083,-5495.081,-5501.6533,-5500.3423,-5504.385,-5501.5996,-5508.6924,-5558.337,-5591.744,-5591.885,-5582.4917,-5562.1875,-5566.2837,-5559.9146,-5515.494,-5512.7236,-5545.713,-5568.207,-5602.021,-5639.2783,-5615.765,-5510.249,-5438.7754,-5437.3813,-5424.997,-5430.9473,-5459.76,-5474.1216,-5477.5806,-5480.9272,-5498.96,-5502.1567,-5499.3506,-5497.871,-5480.7495,-5479.7217,-5499.088,-5528.731,-5532.5522,-5510.4976,-5504.553,-5496.549,-5501.1064,-5510.4844,-5503.7783,-5504.718,-5496.5063,-5496.81,-5511.5522,-5517.882,-5524.9517,-5523.0767,-5524.924,-5535.4116,-5537.9966,-5533.8403,-5521.1597,-5505.229,-5491.643,-5484.0347,-5488.3013,-5495.789,-5490.34,-5489.9644,-5498.0938,-5499.0586,-5509.923,-5514.0825,-5509.7417,-5520.613,-5535.246,-5543.5156,-5557.589,-5604.506,-5632.062,-5621.4814,-5624.506,-5584.643,-5529.881,-5527.733,-5509.7446,-5488.5425,-5492.4595,-5503.1904,-5528.608,-5516.045,-5486.35,-5499.6973,-5495.672,-5467.4297,-5460.5654,-5452.9883,-5424.4287,-5405.3555,-5422.0947,-5434.481,-5429.2275,-5440.451,-5458.8257,-5489.955,-5548.3677,-5607.507,-5654.2666,-5693.172,-5719.5386,-5724.7085,-5691.0464,-5607.557,-5525.9727,-5480.7505,-5438.939,-5414.001,-5398.545,-5391.82,-5434.148,-5450.546,-5433.3633,-5437.4785,-5427.1533,-5412.6743,-5403.5015,-5412.7915,-5441.212,-5455.4316,-5468.5464,-5480.2017,-5519.935,-5574.3447,-5600.7188,-5630.228,-5644.386,-5628.1704,-5611.3403,-5613.997,-5617.712,-5587.701,-5565.4087,-5559.1924,-5531.5454,-5522.44,-5524.8774,-5507.671,-5515.2505,-5513.228,-5484.8896,-5507.011,-5587.3384,-5660.2925,-5660.5737,-5660.7476,-5690.307,-5671.0747,-5683.5674,-5709.2915,-5656.605,-5605.7085,-5582.638,-5553.6206,-5511.934,-5488.221,-5483.4116,-5454.553,-5422.366,-5395.864,-5389.5044,-5391.487,-5385.4507,-5395.982,-5396.7095,-5414.4946,-5432.325,-5418.2427,-5424.74,-5433.3076,-5446.142,-5463.6543,-5469.555,-5483.9917,-5492.63,-5506.4893,-5531.977,-5557.6274,-5588.1475,-5625.782,-5654.1816,-5644.8027,-5622.0767,-5608.929,-5597.2456,-5573.875,-5526.458,-5490.6274,-5488.8545,-5493.9185,-5495.4824,-5489.5444,-5477.9478,-5490.2866,-5515.2563,-5550.2827,-5608.4927,-5627.6724,-5600.778,-5559.9263,-5491.559,-5410.019,-5359.56,-5364.0283,-5387.6187,-5429.7666,-5471.9414,-5476.4805,-5497.3765,-5513.119,-5516.7227,-5552.5127,-5590.5356,-5636.32,-5663.6494,-5654.0396,-5641.4263,-5582.594,-5506.164,-5472.2417,-5421.9087,-5381.4263,-5384.2573,-5377.887,-5398.796,-5427.2847,-5429.064,-5453.0093,-5475.1284,-5491.45,-5505.9688,-5510.621,-5532.7217,-5533.359,-5501.205,-5489.191,-5498.609,-5498.4834,-5501.455,-5522.9463,-5542.966,-5569.704,-5589.9385,-5590.241,-5579.0786,-5539.935,-5516.387,-5508.7085,-5491.387,-5508.543,-5519.145,-5501.742,-5493.8022,-5480.436,-5452.5483,-5418.914,-5405.619,-5417.2354,-5443.406,-5473.016,-5486.91,-5490.1353,-5501.518,-5543.8813,-5580.253,-5610.227,-5679.443,-5733.401,-5734.151,-5685.3906,-5610.454,-5550.8037,-5490.0474,-5420.3613,-5384.4185,-5412.0444,-5445.7563,-5449.365,-5457.8545,-5455.945,-5459.3774,-5468.677,-5453.492,-5442.859,-5415.6577,-5397.8945,-5412.3433,-5402.456,-5405.113,-5426.8276,-5442.671,-5456.2686,-5452.9565,-5467.1826,-5501.636,-5520.4883,-5527.054,-5555.7773,-5582.7627,-5579.415,-5625.2075,-5698.2046,-5724.494,-5746.562,-5783.673,-5774.934,-5684.855,-5607.6753,-5561.062,-5476.533,-5420.2183,-5401.3096,-5394.1274,-5407.094,-5395.6016,-5410.6294,-5440.547,-5431.6094,-5443.592,-5435.9224,-5425.882,-5446.322,-5425.058,-5417.8833,-5430.4253,-5415.565,-5407.492,-5418.209,-5447.108,-5474.2397,-5480.8965,-5493.9673,-5552.5693,-5598.399,-5592.0645,-5579.4463,-5541.58,-5495.3613,-5462.1353,-5418.241,-5381.949,-5371.815,-5369.4634,-5358.186,-5365.44,-5378.996,-5393.196,-5408.99,-5410.3813,-5433.2646,-5454.7075,-5464.1694,-5482.96,-5499.517,-5526.2437,-5548.755,-5575.5684,-5594.267,-5572.4126,-5592.0464,-5614.376,-5547.537,-5517.6323,-5516.4727,-5463.894,-5435.4487,-5397.525,-5360.623,-5367.355,-5375.8574,-5405.567,-5428.122,-5440.7563,-5460.6772,-5456.521,-5447.9766,-5439.6924,-5426.411,-5414.2217,-5401.093,-5394.7905,-5404.9624,-5415.902,-5426.7373,-5470.424,-5518.7725,-5558.99,-5615.461,-5654.4375,-5654.7856,-5630.782,-5592.9507,-5538.5503,-5481.643,-5434.6143,-5387.6396,-5387.89,-5431.051,-5445.667,-5475.7646,-5558.055,-5619.6274,-5627.3296,-5605.5083,-5579.738,-5552.8174,-5489.749,-5440.8765,-5497.4937,-5595.323,-5650.5645,-5648.9756,-5597.8096,-5554.3877,-5501.89,-5418.5537,-5351.809,-5314.0015,-5318.5596,-5317.7607,-5314.854,-5354.5635,-5369.7515,-5375.889,-5385.433,-5380.112,-5365.8486,-5335.989,-5368.731,-5425.925,-5441.4463,-5451.564,-5447.4336,-5448.452,-5448.814,-5440.6416,-5448.635,-5449.371,-5439.1704,-5442.99,-5450.222,-5438.532,-5447.5957,-5468.069,-5447.1333,-5420.5977,-5402.449,-5384.9854,-5403.6636,-5430.486,-5422.399,-5429.018,-5448.5273,-5449.867,-5473.0435,-5492.3394,-5491.464,-5502.1147,-5504.309,-5492.1777,-5471.559,-5438.283,-5395.064,-5368.367,-5369.3423,-5362.798,-5355.748,-5357.6797,-5367.0493,-5397.415,-5431.5664,-5488.5137,-5559.9375,-5581.2944,-5563.324,-5549.851,-5546.3315,-5524.9277,-5476.593,-5420.062,-5377.776,-5365.287,-5364.931,-5383.8843,-5385.095,-5349.6143,-5353.3105,-5350.6016,-5324.6294,-5331.449,-5337.931,-5341.682,-5356.682,-5390.244,-5424.4487,-5445.907,-5468.0225,-5459.9443,-5440.9263,-5437.5327,-5434.4985,-5425.823,-5409.4194,-5393.793,-5381.017,-5379.813,-5379.201,-5374.2466,-5378.3247,-5374.054,-5361.8667,-5358.634,-5375.623,-5408.285,-5440.947,-5478.987,-5526.649,-5556.8086,-5567.079,-5596.5522,-5619.502,-5597.536,-5545.361,-5516.373,-5531.6943,-5524.4976,-5515.418,-5484.3228,-5386.76,-5337.8003,-5312.76,-5290.6626,-5314.143,-5321.323,-5340.12,-5352.088,-5358.675,-5381.4624,-5363.695,-5356.833,-5351.4023,-5353.462,-5373.3467,-5365.987,-5386.4976,-5395.0635,-5384.564,-5399.9165,-5401.8965,-5400.6553,-5412.568,-5438.053,-5453.9614,-5469.2515,-5494.323,-5498.965,-5510.501,-5519.0195,-5508.6133,-5474.2783,-5409.2573,-5372.5317,-5373.546,-5392.224,-5394.969,-5373.542,-5368.5073,-5364.0776,-5372.3086,-5375.714,-5367.062,-5380.286,-5366.9814,-5353.0176,-5357.7183,-5354.817,-5362.5176,-5365.555,-5381.6284,-5407.984,-5416.8677,-5412.478,-5390.4316,-5377.2305,-5381.532,-5396.144,-5416.2686,-5410.889,-5403.4434,-5410.395,-5405.414,-5419.8765,-5448.85,-5462.9976,-5477.505,-5463.771,-5417.336,-5373.3623,-5348.476,-5342.391,-5324.846,-5311.736,-5343.3643,-5380.251,-5384.0386,-5393.701,-5405.6143,-5405.2495,-5430.866,-5449.0225,-5441.025,-5431.8525,-5432.988,-5478.893,-5530.987,-5533.2505,-5485.3794,-5432.876,-5411.954,-5382.238,-5361.1196,-5352.867,-5342.0464,-5367.184,-5394.3765,-5405.7935,-5413.7847,-5427.6465,-5442.7056,-5439.0874,-5444.368,-5424.3657,-5377.527,-5360.3765,-5345.608,-5314.912,-5294.9004,-5298.75,-5316.2944,-5339.2144,-5356.0396,-5374.757,-5408.687,-5441.587,-5462.1113,-5474.718,-5501.4336,-5521.9507,-5523.9033,-5513.714,-5491.3413,-5481.12,-5449.5537,-5417.7793,-5406.1074,-5382.1494,-5369.5825,-5336.3867,-5305.715
-5310.086,-5317.531,-5332.0234,-5338.397,-5355.691,-5359.3115,-5355.8613,-5382.0894,-5364.774,-5356.8296,-5383.385,-5372.3354,-5365.176,-5354.738,-5330.3794,-5320.4907,-5313.7354,-5326.6836,-5343.6724,-5350.9053,-5373.11,-5396.995,-5415.5864,-5433.136,-5449.056,-5471.3115,-5504.7705,-5529.3486,-5513.6626,-5495.356,-5487.614,-5441.2153,-5399.715,-5392.3794,-5376.3486,-5377.5903,-5395.691,-5380.878,-5354.7866,-5356.9395,-5395.62,-5433.812,-5435.987,-5416.84,-5387.19,-5360.159,-5333.507,-5312.9404,-5308.4897,-5307.11,-5315.923,-5315.1753,-5310.8027,-5317.374,-5320.532,-5329.6665,-5336.441,-5350.2554,-5363.6323,-5366.5522,-5379.705,-5391.427,-5400.796,-5400.1987,-5396.8765,-5405.187,-5400.997,-5400.076,-5412.7715,-5414.8335,-5418.888,-5432.8135,-5440.8843,-5453.108,-5464.783,-5465.676,-5473.5,-5460.4326,-5418.6445,-5392.2607,-5365.9326,-5340.987,-5342.768,-5350.765,-5358.845,-5352.298,-5340.001,-5341.033,-5334.4053,-5331.403,-5338.6333,-5346.3843,-5335.0635,-5321.184,-5343.215,-5367.122,-5378.9785,-5367.205,-5344.6987,-5374.2983,-5440.8438,-5494.596,-5520.583,-5536.361,-5537.4663,-5521.989,-5497.156,-5438.0176,-5376.992,-5348.8906,-5315.7456,-5266.697,-5251.334,-5254.477,-5259.25,-5292.8867,-5302.5576,-5308.2197,-5332.184,-5333.2437,-5339.769,-5357.5996,-5391.288,-5395.3545,-5374.0093,-5405.3086,-5438.97,-5455.61,-5465.7695,-5464.7305,-5474.4688,-5477.8486,-5465.6953,-5442.5044,-5445.322,-5508.362,-5561.6826,-5516.102,-5454.689,-5474.4893,-5463.497,-5384.1665,-5320.653,-5287.164,-5275.667,-5273.4097,-5290.768,-5301.518,-5297.0747,-5312.627,-5297.907,-5279.6914,-5293.5005,-5293.6973,-5300.127,-5313.575,-5325.6206,-5334.817,-5334.148,-5341.068,-5351.5605,-5363.792,-5375.1772,-5396.9346,-5426.767,-5441.6577,-5456.6104,-5464.422,-5456.015,-5452.593,-5454.7666,-5445.423,-5430.5454,-5446.3716,-5474.11,-5464.492,-5470.5146,-5508.6943,-5480.2153,-5437.203,-5447.6885,-5431.711,-5388.3228,-5343.9287,-5340.335,-5369.21,-5350.644,-5323.8696,-5307.4644,-5309.5923,-5320.1387,-5315.2827,-5325.083,-5312.794,-5316.8735,-5342.064,-5324.2197,-5300.419,-5297.094,-5317.684,-5333.3296,-5352.582,-5367.8247,-5362.6514,-5395.0483,-5408.739,-5402.4707,-5412.862,-5399.634,-5406.8643,-5410.8403,-5394.7573,-5390.4854,-5381.1323,-5386.1626,-5378.7534,-5362.831,-5366.9985,-5361.154,-5359.7134,-5368.6826,-5371.222,-5366.304,-5365.0522,-5368.5454,-5368.578,-5360.1265,-5353.2686,-5373.0093,-5371.121,-5347.0894,-5328.4204,-5301.5254,-5306.2075,-5305.2866,-5307.177,-5342.197,-5356.443,-5375.7637,-5380.44,-5382.2964,-5416.772,-5429.2603,-5431.6475,-5430.863,-5431.5693,-5438.232,-5444.8037,-5460.682,-5435.904,-5401.7524,-5399.8403,-5370.802,-5321.258,-5302.181,-5303.191,-5294.3086,-5296.5605,-5329.0596,-5376.843,-5411.4414,-5429.2573,-5426.4775,-5377.7485,-5358.22,-5360.714,-5309.355,-5291.1626,-5314.478,-5336.9917,-5370.879,-5382.349,-5402.104,-5411.023,-5355.4443,-5327.2935,-5346.7974,-5337.4473,-5317.573,-5312.8374,-5292.7886,-5254.3877,-5216.608,-5191.082,-5175.701,-5175.149,-5202.9824,-5219.8164,-5228.274,-5266.045,-5289.2017,-5293.859,-5338.056,-5409.2026,-5443.557,-5453.922,-5451.7744,-5402.181,-5349.022,-5311.345,-5267.015,-5184.8047,-5095.985,-5114.6675,-5143.612,-5110.971,-5094.0435,-5080.3774,-5084.9165,-5075.966,-5061.738,-5064.894,-5029.8955,-5011.1904,-4992.07,-4982.8643,-5011.3613,-5001.479,-5006.0986,-5021.225,-5010.5674,-5021.54,-5043.966,-5063.672,-5066.559,-5058.761,-5053.97,-5078.5024,-5150.561,-5187.048,-5157.5063,-5111.308,-5063.944,-5031.0376,-5020.293,-5017.2886,-5018.275,-5029.379,-5050.759,-5067.6953,-5067.108,-5077.191,-5110.8877,-5106.741,-5053.7783,-5008.1396,-4965.979,-4922.3267,-4907.287,-4915.5474,-4930.2515,-4939.8105,-4934.3794,-4923.4766,-4919.4893,-4916.682,-4912.105,-4915.0303,-4923.295,-4930.7407,-4939.262,-4949.1294,-4957.1274,-4966.6562,-4982.5825,-4996.2446,-4998.3706,-5011.061,-5055.0273,-5092.29,-5093.18,-5069.209,-5035.491,-5016.2207,-4991.417,-4949.7456,-4944.806,-4963.4136,-4970.8745,-5002.697,-5042.892,-5022.1543,-4995.814,-5032.5884,-5023.2217,-4972.7075,-4968.5044,-4943.181,-4935.023,-4948.54,-4913.012,-4912.028,-4937.796,-4947.5967,-4968.517,-4988.9746,-5017.477,-5057.138,-5091.2593,-5079.9688,-5050.2075,-5060.23,-5038.6987,-5003.881,-5024.9717,-5043.9736,-5060.691,-5076.258,-5068.196,-5073.1797,-5080.0,-5055.5386,-4997.0513,-4946.2285,-4933.566,-4930.8833,-4940.301,-4965.5703,-4984.6836,-4999.7764,-5013.9204,-5024.4023,-5043.651,-5056.854,-5052.3774,-5062.053,-5076.782,-5081.745,-5094.958,-5116.995,-5140.1123,-5156.4023,-5175.3184,-5188.783,-5184.7397,-5183.3315,-5165.4146,-5130.695,-5101.68,-5075.186,-5078.469,-5093.1357,-5101.787,-5119.3716,-5115.9683,-5116.024,-5129.7764,-5126.0767,-5127.496,-5141.821,-5148.8643,-5142.049,-5154.771,-5194.6064,-5222.2124,-5213.703,-5180.8657,-5174.3794,-5173.837,-5152.367,-5151.209,-5166.1396,-5170.72,-5151.9316,-5136.287,-5135.2246,-5128.832,-5135.837,-5143.123,-5145.6187,-5149.142,-5143.9253,-5155.3486,-5170.687,-5185.4893,-5221.7544,-5236.514,-5221.247,-5228.382,-5253.347,-5267.593,-5260.764,-5233.519,-5216.1973,-5212.6533,-5212.117,-5217.0073,-5211.952,-5200.428,-5192.019,-5180.888,-5180.7695,-5195.326,-5200.724,-5198.97,-5194.607,-5192.0854,-5210.5264,-5224.863,-5227.2715,-5243.02,-5274.176,-5293.303,-5273.0874,-5262.8516,-5279.3237,-5277.8193,-5267.83,-5264.7524,-5261.356,-5243.412,-5209.1963,-5177.3833,-5165.742,-5164.1216,-5162.324,-5188.6655,-5214.8154,-5217.658,-5227.8193,-5227.59,-5221.8267,-5221.0513,-5223.251,-5238.9043,-5241.7944,-5237.3813,-5232.866,-5245.3535,-5293.7695,-5320.4956,-5314.7734,-5287.0767,-5250.194,-5232.906,-5223.1265,-5233.9893,-5250.212,-5261.5776,-5283.8647,-5298.1396,-5292.8306,-5253.1577,-5227.065,-5220.5034,-5196.7114,-5206.6274,-5219.4907,-5219.295,-5243.798,-5261.6465,-5268.3027,-5258.5083,-5252.536,-5262.826,-5251.092,-5245.343,-5264.542,-5279.1577,-5280.143,-5282.8174,-5298.706,-5323.2344,-5340.713,-5337.064,-5335.849,-5331.4644,-5308.8286,-5308.697,-5333.0005,-5350.3354,-5365.2383,-5396.679,-5414.1665,-5389.9224,-5359.9897,-5330.1797,-5289.767,-5253.5327,-5249.977,-5296.854,-5348.52,-5389.423,-5435.0723,-5435.2827,-5395.7915,-5377.579,-5345.75,-5304.339,-5294.734,-5271.7227,-5257.1104,-5255.644,-5234.281,-5238.0396,-5241.414,-5227.5347,-5230.8906,-5241.05,-5247.5557,-5241.1284,-5239.6167,-5248.861,-5248.189,-5250.4346,-5258.6006,-5264.388,-5276.759,-5290.2017,-5297.371,-5318.461,-5343.5693,-5353.7583,-5358.929,-5357.765,-5356.359,-5345.6084,-5327.6943,-5314.794,-5301.762,-5317.1416,-5333.288,-5326.4707,-5330.6455,-5337.2705,-5342.166,-5329.522,-5312.1294,-5298.934,-5269.1616,-5273.1206,-5284.6616,-5295.097,-5340.305,-5347.633,-5340.371,-5354.2363,-5348.791,-5334.0356,-5312.0967,-5307.565,-5322.1504,-5315.686,-5310.386,-5307.222,-5287.9326,-5292.534,-5309.4297,-5305.7085,-5310.5864,-5315.0933,-5308.36,-5306.71,-5304.431,-5304.483,-5308.054,-5308.0493,-5304.0938,-5306.376,-5303.6733,-5295.9536,-5301.086,-5297.9624,-5297.5864,-5308.646,-5311.3604,-5317.169,-5323.914,-5330.262,-5347.431,-5383.7275,-5431.1377,-5456.35,-5470.207,-5498.598,-5489.2637,-5425.0903,-5369.7866,-5330.2837,-5324.471,-5347.892,-5331.481,-5322.4956,-5345.897,-5334.646,-5309.5996,-5303.0474,-5288.3574,-5286.4937,-5311.5244,-5322.794,-5345.435,-5380.6284,-5392.115,-5409.358,-5420.378,-5388.1206,-5336.454,-5311.29,-5308.9976,-5302.3394,-5291.348,-5278.25,-5277.929,-5287.2104,-5296.2583,-5304.691,-5304.4272,-5308.68,-5311.087,-5308.8003,-5310.3145,-5307.3755,-5305.48,-5307.635,-5318.9224,-5336.039,-5366.64,-5416.158,-5438.463,-5426.0063,-5417.592,-5430.991,-5445.903,-5442.7417,-5438.93,-5424.4434,-5421.668,-5450.7705,-5444.6284,-5418.321,-5401.886,-5365.11,-5341.8057,-5347.5103,-5349.3525,-5333.9414,-5312.9136,-5300.497,-5298.38,-5320.329,-5345.426,-5345.1797,-5348.5737,-5350.828,-5342.9,-5355.3022,-5364.4185,-5354.1284,-5351.8066,-5352.688,-5340.0645,-5332.9834,-5344.622,-5348.8,-5357.824,-5378.8022,-5389.1714,-5392.5728,-5387.8027,-5407.1157,-5432.6025,-5420.6553,-5423.3584,-5431.7886,-5423.52,-5416.117,-5385.636,-5362.154,-5357.0864,-5340.9766,-5334.6016,-5340.1514,-5344.93,-5349.05,-5358.11,-5363.5513,-5357.7495,-5358.69,-5359.9585,-5366.836,-5388.157,-5407.902,-5427.906,-5445.53,-5451.693,-5453.237,-5469.5996,-5473.591,-5439.7417,-5409.7876,-5372.766,-5332.2974,-5334.766,-5347.431,-5361.536,-5392.684,-5421.8486,-5424.364,-5399.5034,-5398.014,-5394.977,-5371.339,-5386.647,-5395.207,-5359.916,-5332.0093,-5325.82,-5322.713,-5317.9604,-5325.83,-5336.851,-5349.3765,-5369.508,-5374.785,-5373.162,-5377.4097,-5374.915,-5368.233,-5364.5317,-5359.034,-5356.891,-5361.4346,-5361.7,-5360.0967,-5356.5513,-5352.406,-5352.6895,-5354.207,-5361.7153,-5369.2715,-5376.2764,-5386.32,-5394.0034,-5405.3027,-5414.965,-5413.96,-5405.152,-5392.8364,-5393.4575,-5425.98,-5459.8184,-5460.264,-5460.96,-5453.9473,-5408.3857,-5383.4863,-5401.696,-5415.724,-5421.467,-5427.7705,-5418.6885,-5396.5425,-5382.535,-5388.6865,-5402.8936,-5405.4126,-5397.261,-5385.764,-5368.687,-5348.2163,-5335.0073,-5318.4917,-5308.6865,-5324.2983,-5337.8696,-5350.3154,-5360.481,-5360.832,-5367.7246,-5376.3213,-5386.252,-5386.0234,-5371.751,-5358.3813,-5367.7847,-5397.4277,-5401.8716,-5392.135,-5389.066,-5394.258,-5406.8657,-5405.1953,-5399.672,-5377.3647,-5350.461,-5355.171,-5351.256,-5342.848,-5360.605,-5391.373,-5409.718,-5406.58,-5414.068,-5418.4546,-5408.418,-5406.4795,-5411.667,-5420.7544,-5405.039,-5381.098,-5369.9966,-5350.62,-5351.83,-5369.7646,-5378.477,-5387.8037,-5394.8926,-5400.9536,-5406.197,-5408.7285,-5412.818,-5411.2236,-5397.783,-5392.2505,-5401.016,-5398.491,-5398.2607,-5403.7954,-5396.355,-5392.761,-5385.8413,-5379.6143,-5385.2026,-5389.0312,-5405.01,-5419.3364,-5425.1343,-5451.3003,-5468.621,-5472.7144,-5480.3354,-5451.2285,-5419.7593,-5413.938,-5403.4766,-5405.993,-5400.2407,-5388.0356,-5385.187,-5371.569,-5365.4453,-5355.187,-5348.1265,-5357.1006,-5364.8184,-5372.2046,-5369.16,-5370.289,-5382.0786,-5403.03,-5417.977,-5407.68,-5407.261,-5415.2974,-5426.727,-5442.469,-5443.449,-5442.822,-5431.3,-5411.657,-5408.123,-5405.1714,-5393.544,-5391.5586,-5404.155,-5418.6455,-5425.338,-5420.817,-5423.016,-5430.909,-5426.48,-5432.692,-5440.7915,-5422.1655,-5416.285,-5428.5337,-5420.301,-5419.2285,-5435.886,-5448.0693,-5457.6636,-5464.217,-5485.49,-5504.8887,-5503.2773,-5504.1187,-5505.0044,-5500.4556,-5478.2373,-5448.1875,-5425.147,-5403.1064,-5398.3364,-5395.8164,-5391.689,-5407.039,-5426.7944,-5434.106,-5431.288,-5408.3574,-5388.5605,-5408.6216,-5419.592,-5422.233,-5430.4204,-5422.1973,-5424.48,-5407.1973,-5385.3325,-5392.7017,-5392.48,-5392.313,-5396.921,-5394.453,-5390.5396,-5413.0684,-5449.6006,-5465.683,-5484.623,-5496.812,-5481.8193,-5452.198,-5435.2505,-5454.9746,-5479.3013,-5485.347,-5471.7397,-5447.099,-5444.6113,-5448.0557,-5430.428,-5407.724,-5401.729,-5413.5674,-5415.8164,-5402.187,-5394.2773,-5391.4062,-5389.298,-5399.9106,-5411.4077,-5414.0366,-5425.252,-5434.6455,-5435.1455,-5442.7803,-5441.6187,-5430.6895,-5452.7666,-5482.3027,-5465.824,-5446.65,-5444.2593,-5429.2803,-5419.4077,-5422.5825,-5424.2705,-5410.4062,-5396.7754,-5412.8613,-5431.724,-5443.183,-5458.522,-5476.0195,-5508.6245,-5523.6465,-5524.1953,-5528.783,-5506.1484,-5512.246,-5539.723,-5526.076,-5509.79,-5486.9683,-5453.8604,-5437.5654,-5415.593,-5387.4766,-5387.949,-5385.036,-5368.4585,-5382.3276,-5377.72,-5366.059,-5375.8965,-5370.5303,-5382.8647,-5395.527,-5399.903,-5407.5625,-5396.024,-5410.9365,-5453.787,-5489.7295,-5522.335,-5527.071,-5502.494,-5486.631,-5466.952,-5439.307,-5422.3643,-5403.146,-5400.3086,-5413.427,-5412.784,-5400.241,-5387.5996,-5384.9595,-5383.123,-5382.769,-5382.349,-5381.883,-5395.9644,-5404.718,-5407.174,-5417.3374,-5431.8677,-5453.8315,-5468.3467,-5467.309,-5462.0796,-5456.127,-5449.4214,-5442.4634,-5429.603,-5413.7334,-5401.884,-5388.3604,-5390.899,-5409.012,-5424.259,-5445.975,-5463.828,-5483.556,-5518.27,-5553.5693,-5586.6636,-5615.472,-5612.72,-5559.6255,-5502.9287,-5478.434,-5466.2744,-5444.015,-5406.327,-5386.204,-5406.837,-5425.403,-5421.9263,-5433.833,-5419.447,-5375.948,-5375.1333,-5375.1494,-5370.126,-5380.246,-5381.619,-5388.406,-5396.3184,-5414.958,-5436.998,-5446.037,-5448.4014,-5438.567,-5435.6675,-5441.143,-5434.4453,-5413.6924,-5412.1426,-5423.089,-5417.393,-5424.4263,-5428.361,-5422.28,-5429.2964,-5437.9443,-5442.4185,-5446.574,-5490.6177,-5556.9688,-5570.9106,-5545.0527,-5526.9746,-5508.6543,-5484.4507,-5478.5107,-5458.098,-5429.87,-5427.6274,-5412.506,-5398.721,-5402.0127,-5419.6733,-5429.7974,-5404.5913,-5401.099,-5399.9526,-5388.794,-5407.2285
-5420.1133,-5445.86,-5483.6562,-5496.4326,-5505.871,-5530.3228,-5578.407,-5607.8057,-5600.8677,-5607.8804,-5605.6094,-5568.787,-5536.834,-5515.108,-5462.123,-5385.562,-5352.3115,-5352.4067,-5360.715,-5381.4834,-5393.486,-5407.0728,-5406.9985,-5401.723,-5404.294,-5389.376,-5387.945,-5394.272,-5407.9243,-5424.4346,-5426.742,-5444.719,-5457.7944,-5470.6157,-5480.1084,-5478.645,-5492.051,-5495.0093,-5490.166,-5474.9316,-5458.4565,-5474.4624,-5504.7114,-5535.8447,-5570.3164,-5601.97,-5603.3735,-5582.0083,-5544.1978,-5504.027,-5495.827,-5460.0366,-5425.8696,-5427.823,-5417.9897,-5431.632,-5429.402,-5423.0454,-5445.582,-5425.3345,-5410.245,-5412.4956,-5398.336,-5393.352,-5388.4604,-5389.046,-5392.1475,-5394.7573,-5413.166,-5436.2334,-5449.8223,-5470.426,-5505.5957,-5526.5366,-5540.974,-5555.924,-5555.6294,-5547.395,-5520.3755,-5493.4907,-5490.2725,-5467.9717,-5436.283,-5432.0874,-5434.962,-5457.722,-5502.318,-5523.904,-5526.136,-5524.0366,-5534.4727,-5574.156,-5583.0796,-5555.5806,-5546.327,-5523.9717,-5496.5903,-5503.287,-5521.2627,-5521.4707,-5498.2993,-5478.712,-5460.9966,-5451.3364,-5457.51,-5455.5176,-5458.4756,-5472.7695,-5491.0576,-5496.3716,-5500.6304,-5529.39,-5533.421,-5499.4253,-5469.4116,-5458.308,-5460.9575,-5464.7397,-5465.5884,-5465.618,-5477.591,-5516.9473,-5550.2974,-5559.177,-5593.848,-5618.664,-5593.6704,-5568.795,-5526.5938,-5497.768,-5507.577,-5490.0537,-5478.3774,-5487.4834,-5509.2515,-5537.485,-5529.783,-5550.17,-5580.5854,-5556.5996,-5540.774,-5540.477,-5533.67,-5512.212,-5485.986,-5462.103,-5435.1396,-5432.6675,-5430.314,-5450.1,-5484.093,-5482.2275,-5492.9077,-5519.116,-5579.2993,-5627.686,-5605.6294,-5594.006,-5592.7056,-5593.0264,-5572.2266,-5517.262,-5499.4766,-5490.4854,-5473.1,-5462.6333,-5453.26,-5457.502,-5452.939,-5457.508,-5488.675,-5534.0825,-5607.2007,-5643.219,-5623.1953,-5625.1484,-5609.337,-5573.838,-5553.871,-5502.751,-5470.84,-5464.7764,-5471.9995,-5526.395,-5566.1543,-5594.201,-5603.887,-5589.1323,-5612.598,-5627.3574,-5602.098,-5551.051,-5505.3564,-5487.726,-5451.9863,-5428.9517,-5438.1055,-5455.207,-5477.831,-5477.772,-5487.6655,-5500.9844,-5488.99,-5491.091,-5490.379,-5496.748,-5515.094,-5523.975,-5533.649,-5539.69,-5568.5137,-5562.537,-5529.619,-5547.9585,-5540.337,-5525.826,-5536.046,-5550.822,-5572.155,-5552.7754,-5542.896,-5550.825,-5555.7124,-5574.459,-5587.6655,-5618.034,-5606.3594,-5545.1357,-5510.6772,-5484.3916,-5468.1816,-5468.633,-5482.4453,-5501.398,-5517.769,-5540.9014,-5535.8496,-5528.3413,-5549.979,-5562.6465,-5582.736,-5606.7544,-5601.3345,-5575.8564,-5539.5347,-5520.9053,-5507.876,-5473.709,-5466.0996,-5487.522,-5508.592,-5523.791,-5526.0376,-5529.569,-5528.8813,-5529.199,-5542.29,-5546.0947,-5550.1367,-5558.874,-5560.4453,-5551.998,-5525.218,-5516.332,-5542.694,-5549.4873,-5535.893,-5549.075,-5571.133,-5573.9966,-5570.203,-5575.95,-5569.9946,-5528.857,-5514.12,-5526.2515,-5525.658,-5553.04,-5559.574,-5529.6157,-5533.393,-5552.905,-5548.7573,-5519.9683,-5509.869,-5499.618,-5469.4453,-5467.645,-5460.125,-5452.263,-5468.084,-5485.686,-5530.8267,-5585.704,-5613.3735,-5612.1655,-5606.907,-5605.1206,-5588.287,-5565.4893,-5541.7466,-5547.316,-5553.059,-5517.732,-5518.634,-5533.9062,-5519.7837,-5539.19,-5564.9185,-5567.358,-5559.8057,-5540.505,-5556.442,-5575.5483,-5576.7007,-5607.4067,-5601.764,-5568.7495,-5563.4785,-5534.3076,-5495.188,-5478.2603,-5485.3813,-5512.7695,-5539.2866,-5573.9224,-5600.794,-5619.8984,-5642.575,-5661.412,-5694.6353,-5691.143,-5664.767,-5682.159,-5666.5557,-5606.931,-5581.601,-5591.387,-5593.491,-5574.3745,-5550.5747,-5551.0635,-5602.121,-5650.0015,-5680.7695,-5688.547,-5640.783,-5647.947,-5682.665,-5640.6284,-5589.3145,-5536.9556,-5474.7393,-5440.209,-5418.6245,-5404.8174,-5430.9375,-5461.233,-5460.0415,-5473.507,-5494.0786,-5513.6567,-5533.844,-5529.1353,-5519.2896,-5517.5527,-5535.392,-5568.5996,-5588.741,-5614.3716,-5653.4927,-5672.539,-5658.144,-5613.596,-5571.664,-5565.5156,-5571.9062,-5564.421,-5541.74,-5527.607,-5531.5894,-5540.57,-5535.979,-5514.186,-5522.2134,-5534.347,-5512.8027,-5491.8125,-5466.0576,-5437.721,-5424.7734,-5440.0396,-5479.911,-5519.0776,-5549.094,-5555.258,-5550.3438,-5551.264,-5552.5586,-5556.5317,-5561.0737,-5566.7876,-5566.0737,-5557.2324,-5549.667,-5546.5444,-5543.692,-5538.215,-5538.4556,-5535.3223,-5531.49,-5548.0615,-5565.189,-5563.041,-5569.967,-5585.154,-5575.0176,-5571.473,-5595.1216,-5612.2637,-5629.127,-5644.4375,-5637.5273,-5639.5225,-5672.057,-5702.8477,-5717.7026,-5714.804,-5665.9473,-5580.3115,-5515.2393,-5467.254,-5420.5005,-5437.0063,-5480.4297,-5494.5166,-5519.763,-5536.1235,-5552.7363,-5554.8716,-5515.0107,-5518.936,-5567.317,-5613.312,-5635.4507,-5625.1577,-5605.152,-5565.97,-5521.828,-5499.3286,-5496.604,-5491.405,-5482.84,-5489.809,-5512.998,-5565.8403,-5601.679,-5616.4067,-5644.3784,-5633.6567,-5612.626,-5619.522,-5616.531,-5588.4746,-5587.8276,-5632.0347,-5631.2383,-5590.348,-5549.7427,-5513.9053,-5471.2705,-5438.1772,-5473.83,-5470.269,-5459.811,-5510.7295,-5509.7676,-5538.7812,-5577.4443,-5549.532,-5548.348,-5582.157,-5605.1455,-5591.5845,-5606.185,-5623.4834,-5584.5664,-5569.0596,-5581.7197,-5596.409,-5587.6533,-5564.8213,-5561.6987,-5556.0645,-5548.5474,-5534.3164,-5526.7676,-5532.015,-5528.325,-5517.3286,-5515.324,-5540.5806,-5565.494,-5574.9697,-5577.867,-5559.011,-5529.797,-5524.7505,-5519.5576,-5504.135,-5531.024,-5553.183,-5557.7114,-5593.904,-5604.3604,-5604.682,-5628.4507,-5641.921,-5661.464,-5668.004,-5618.7026,-5535.6665,-5479.7188,-5455.7246,-5435.594,-5444.2656,-5469.078,-5483.7666,-5523.4272,-5591.996,-5627.9067,-5625.456,-5634.148,-5618.452,-5586.0938,-5584.7476,-5569.716,-5557.079,-5560.962,-5571.464,-5612.9126,-5625.4336,-5597.197,-5570.2,-5563.2227,-5575.0967,-5529.8384,-5462.713,-5441.629,-5433.7847,-5470.6123,-5528.5996,-5548.891,-5569.7544,-5570.115,-5558.425,-5593.323,-5599.7246,-5582.2397,-5601.668,-5585.1494,-5543.6475,-5534.1553,-5529.1763,-5501.989,-5474.8745,-5472.433,-5485.592,-5545.5,-5623.4355,-5653.722,-5649.2188,-5632.7417,-5631.176,-5603.662,-5551.0674,-5536.555,-5525.1133,-5521.6084,-5529.1133,-5542.6606,-5583.453,-5606.0376,-5646.18,-5674.8105,-5609.4043,-5583.8516,-5599.3613,-5551.861,-5560.088,-5607.6885,-5622.642,-5672.092,-5684.526,-5682.7334,-5710.5957,-5690.571,-5711.828,-5763.844,-5730.1904,-5679.383,-5725.3047,-5794.6104,-5782.4863,-5744.441,-5641.3384,-5522.382,-5488.839,-5425.4766,-5383.3145,-5420.383,-5436.012,-5457.1724,-5496.7915,-5500.1445,-5509.2905,-5523.62,-5495.64,-5495.616,-5523.1226,-5551.5576,-5600.349,-5630.8394,-5675.438,-5698.83,-5663.0757,-5657.772,-5647.1826,-5609.179,-5590.641,-5571.3066,-5572.5312,-5585.0327,-5575.4463,-5577.6445,-5606.1865,-5663.4272,-5704.8247,-5681.6836,-5615.3184,-5502.984,-5399.546,-5361.115,-5361.568,-5400.565,-5451.0654,-5508.146,-5580.0063,-5644.0703,-5700.5493,-5743.2954,-5769.5483,-5738.6455,-5657.364,-5610.8115,-5595.8867,-5553.5513,-5498.2812,-5477.6074,-5503.3228,-5577.7334,-5657.8364,-5734.8,-5808.6577,-5778.3833,-5666.2896,-5577.4346,-5484.3276,-5416.0557,-5428.898,-5432.268,-5421.818,-5446.027,-5479.854,-5507.685,-5505.0444,-5508.4287,-5525.873,-5526.105,-5514.609,-5492.4746,-5477.4683,-5461.2627,-5483.378,-5555.2075,-5609.689,-5628.9727,-5636.242,-5659.9775,-5630.243,-5565.3438,-5574.675,-5600.7427,-5598.6904,-5615.2456,-5663.765,-5652.7437,-5572.2534,-5536.336,-5515.179,-5519.133,-5580.304,-5601.6875,-5621.987,-5710.6904,-5795.1323,-5800.75,-5753.7793,-5731.4546,-5644.4404,-5478.2954,-5445.307,-5469.191,-5449.2007,-5500.467,-5552.3916,-5556.4756,-5517.3,-5415.187,-5326.7964,-5291.704,-5277.5684,-5229.1216,-5204.342,-5219.983,-5224.6206,-5283.671,-5319.7495,-5312.4062,-5360.097,-5390.1143,-5410.813,-5448.709,-5465.052,-5469.197,-5468.343,-5504.037,-5528.5967,-5499.7314,-5466.2627,-5421.611,-5359.0654,-5295.039,-5285.382,-5303.239,-5308.1353,-5362.183,-5402.8457,-5413.2666,-5436.145,-5446.6523,-5453.6816,-5416.128,-5381.2554,-5373.8545,-5330.0176,-5294.214,-5253.8774,-5220.0576,-5192.881,-5147.3184,-5156.6143,-5189.878,-5232.5,-5300.418,-5377.608,-5471.5312,-5540.5566,-5575.9883,-5592.373,-5618.0483,-5586.959,-5428.97,-5276.317,-5201.388,-5203.73,-5269.731,-5315.3066,-5312.561,-5264.525,-5177.613,-5115.095,-5075.1064,-5025.1216,-5044.067,-5089.851,-5111.4414,-5151.247,-5146.3174,-5160.529,-5210.287,-5216.0513,-5220.5127,-5229.313,-5276.5376,-5314.806,-5324.354,-5389.73,-5479.843,-5573.686,-5574.592,-5473.8564,-5372.9565,-5214.0845,-5037.1523,-4947.0054,-4928.366,-4947.842,-4989.7256,-5023.056,-5046.787,-5075.232,-5092.1455,-5104.4155,-5100.1777,-5082.5312,-5064.359,-5058.144,-5067.943,-5054.8657,-5058.802,-5079.086,-5102.231,-5152.201,-5170.423,-5191.0137,-5251.4893,-5296.589,-5295.0356,-5239.1133,-5188.704,-5166.3784,-5154.3076,-5162.0,-5153.8726,-5139.559,-5127.5444,-5113.326,-5138.563,-5146.781,-5124.9224,-5118.0215,-5086.396,-5058.362,-5078.27,-5124.0527,-5165.7534,-5199.4136,-5241.5527,-5273.6924,-5279.4785,-5231.2114,-5146.846,-5074.8374,-5002.4126,-4995.7163,-5050.5283,-5051.218,-5037.6484,-5056.977,-5083.5645,-5100.8325,-5091.7896,-5080.6094,-5071.608,-5063.7173,-5056.7573,-5055.1157,-5081.488,-5088.884,-5095.0054,-5148.118,-5202.1665,-5229.303,-5255.331,-5331.6323,-5411.418,-5427.448,-5363.4224,-5233.265,-5157.644,-5091.8833,-5007.448,-5017.375,-5003.179,-4989.7324,-5071.137,-5130.6265,-5165.5376,-5153.4727,-5082.4517,-4999.134,-4936.36,-4964.991,-4992.1235,-4964.601,-4986.6465,-5038.501,-5053.4307,-5059.348,-5079.184,-5113.2153,-5166.835,-5202.126,-5208.3506,-5172.453,-5105.0493,-5079.8354,-5061.112,-5038.2856,-5070.5117,-5098.6914,-5104.7993,-5173.434,-5258.9473,-5223.6343,-5109.0317,-5071.718,-5094.0107,-5082.622,-5045.5903,-4993.73,-4939.379,-4904.4873,-4908.38,-4949.0737,-4981.8486,-5015.021,-5032.518,-5017.065,-5001.565,-4971.8384,-4953.215,-4942.927,-4913.3433,-4919.2046,-4945.392,-4946.375,-4929.4536,-4908.3555,-4920.296,-4963.4414,-5034.785,-5119.1533,-5139.0747,-5140.8896,-5142.8896,-5081.4185,-5037.656,-5023.216,-5012.1865,-5054.4155,-5110.923,-5143.797,-5133.708,-5060.0845,-4939.8594,-4848.0625,-4852.841,-4864.314,-4867.489,-4922.2573,-4951.343,-4955.202,-4972.957,-4991.898,-5009.997,-4999.041,-4971.167,-4924.57,-4873.2993,-4853.609,-4841.5874,-4855.0796,-4872.818,-4881.4634,-4928.013,-4980.245,-5023.964,-5062.232,-5068.605,-5049.1787,-5053.3447,-5079.71,-5069.6885,-5059.813,-5071.0674,-5091.3447,-5107.605,-5054.546,-4979.488,-4920.9194,-4850.9756,-4816.128,-4834.6914,-4909.3115,-5022.7373,-5084.5195,-5085.8145,-5073.592,-5035.411,-5002.3335,-4986.023,-4967.829,-4983.0083,-5011.6465,-5048.481,-5092.32,-5094.7583,-5079.97,-5042.371,-4946.035,-4863.6753,-4827.6973,-4798.6216,-4792.761,-4800.4956,-4799.6357,-4799.8364,-4822.1733,-4874.818,-4935.0366,-5005.412,-5070.7827,-5111.9414,-5105.877,-5080.9756,-5066.2095,-4998.1533,-4929.3687,-4856.8003,-4757.699,-4740.059,-4745.0527,-4741.9385,-4799.4097,-4872.0176,-4928.9917,-4979.996,-5022.5674,-5061.546,-5067.1274,-5028.4004,-5018.494,-5012.52,-4945.61,-4872.945,-4801.156,-4733.59,-4730.8057,-4772.8286,-4804.336,-4830.412,-4866.6987,-4904.4287,-4954.9536,-4999.909,-5013.8833,-4981.829,-4910.5947,-4885.366,-4866.222,-4796.7197,-4773.2275,-4791.0435,-4798.2754,-4802.1567,-4813.4487,-4872.08,-4989.469,-5129.945,-5227.4673,-5209.3096,-5109.6094,-5033.826,-4964.195,-4867.727,-4810.691,-4797.4155,-4811.8403,-4848.021,-4866.8374,-4859.3086,-4868.1836,-4915.956,-4930.7783,-4909.984,-4866.1206,-4784.004,-4765.1104,-4768.8345,-4721.85,-4717.6772,-4780.5625,-4859.447,-4917.181,-4995.317,-5064.9736,-5034.3716,-4984.858,-4949.1284,-4867.525,-4766.3364,-4715.456,-4738.4834,-4780.468,-4822.876,-4840.7905,-4828.03,-4842.211,-4828.821,-4792.012,-4785.3706,-4755.525,-4767.5522,-4819.2847,-4810.8784,-4818.575,-4848.2725,-4869.3203,-4894.2686,-4882.8223,-4893.7334,-4891.7056,-4857.609,-4895.2446,-4902.1787,-4877.1953,-4897.152,-4874.408,-4831.5776,-4809.5664,-4811.7896,-4836.7476,-4840.796,-4834.8525,-4810.5713,-4777.985,-4771.7544,-4766.6416,-4788.2764,-4887.807,-5015.8555,-5065.9326,-5057.8584,-5045.978,-4991.2236,-4971.8604,-4978.24,-4906.515,-4852.393,-4800.9795,-4753.975,-4808.5503,-4860.2456,-4899.9326,-4988.3096,-5061.4893,-5080.7983,-5035.1353,-4913.002,-4789.0596,-4723.614,-4641.688,-4607.568,-4630.613,-4615.028,-4669.5215,-4748.1333,-4802.554,-4883.013,-4914.3545,-4932.419,-4987.4404,-5020.251,-4985.65,-4960.083,-4941.5093,-4881.077,-4848.4785,-4797.6084,-4739.2725,-4727.4233,-4732.7163,-4748.459,-4785.0903,-4861.3213,-4887.8,-4858.97,-4824.4316,-4776.036,-4730.6626,-4677.073,-4667.0825,-4662.4414,-4638.7563,-4651.84,-4657.0913,-4670.653,-4682.4243
-4697.261,-4726.5737,-4732.8423,-4762.0957,-4795.703,-4831.6934,-4863.622,-4835.078,-4798.8022,-4776.536,-4752.8438,-4743.3335,-4741.4775,-4750.678,-4783.5337,-4803.4644,-4796.3433,-4800.043,-4790.377,-4778.75,-4825.3677,-4882.975,-4891.45,-4840.7563,-4758.732,-4747.4272,-4797.2593,-4822.801,-4840.886,-4836.7705,-4835.848,-4844.817,-4799.723,-4761.39,-4722.1396,-4661.24,-4627.4355,-4608.5103,-4616.503,-4626.1523,-4640.9,-4672.0654,-4686.5835,-4718.074,-4732.168,-4706.382,-4688.5527,-4678.47,-4684.0117,-4701.261,-4715.822,-4725.2866,-4724.462,-4723.518,-4722.5737,-4722.5674,-4745.909,-4788.439,-4804.0347,-4788.9565,-4789.7847,-4832.0415,-4898.8394,-4913.372,-4853.051,-4798.29,-4789.286,-4780.194,-4727.2896,-4694.348,-4701.704,-4689.5166,-4680.7124,-4682.481,-4698.016,-4730.1953,-4736.74,-4724.6646,-4699.9204,-4670.303,-4653.2134,-4637.377,-4634.85,-4651.7397,-4679.526,-4722.5493,-4766.319,-4807.6553,-4845.8037,-4874.0576,-4899.131,-4868.293,-4795.2305,-4783.8354,-4793.569,-4750.1963,-4707.5796,-4716.277,-4754.769,-4786.084,-4779.452,-4724.8535,-4657.4976,-4625.2046,-4620.8555,-4615.0264,-4612.603,-4603.6406,-4606.6836,-4640.772,-4655.6914,-4660.5225,-4676.7524,-4686.363,-4689.0176,-4679.89,-4695.928,-4722.694,-4708.2217,-4697.2466,-4698.761,-4693.787,-4694.1133,-4688.4844,-4698.7246,-4751.4067,-4801.003,-4808.1294,-4802.757,-4789.5015,-4758.4873,-4725.811,-4711.9834,-4739.1216,-4737.1655,-4704.873,-4738.7617,-4794.317,-4826.646,-4834.6543,-4824.7573,-4821.804,-4777.7837,-4704.3594,-4639.4536,-4592.229,-4605.407,-4663.9863,-4734.802,-4769.1196,-4773.1865,-4783.348,-4763.9917,-4752.523,-4710.671,-4633.471,-4613.674,-4600.9453,-4611.404,-4612.9414,-4585.3447,-4624.259,-4669.5386,-4701.0522,-4721.1235,-4718.7476,-4707.0405,-4686.754,-4702.674,-4695.1265,-4680.4893,-4703.1836,-4701.318,-4727.7427,-4781.199,-4779.1016,-4740.459,-4721.1177,-4714.49,-4695.557,-4663.9297,-4633.492,-4633.6855,-4633.604,-4625.269,-4637.21,-4662.7534,-4702.694,-4721.331,-4717.651,-4727.2695,-4742.4414,-4767.232,-4815.8677,-4867.0986,-4867.5073,-4807.2056,-4743.6567,-4713.7207,-4706.974,-4719.9,-4734.181,-4738.199,-4720.0156,-4674.8486,-4672.5464,-4659.9497,-4604.802,-4615.88,-4642.3896,-4638.3125,-4638.378,-4653.996,-4699.3643,-4738.333,-4741.8237,-4720.1123,-4719.2783,-4705.033,-4644.0674,-4617.164,-4618.5015,-4636.5674,-4670.4316,-4675.4985,-4673.9355,-4670.4907,-4667.7524,-4706.4814,-4754.137,-4753.7007,-4724.84,-4702.704,-4706.724,-4762.241,-4825.7905,-4801.851,-4729.7554,-4705.2446,-4682.0776,-4663.653,-4694.232,-4732.7515,-4852.935,-5027.648,-5092.618,-5122.6094,-5115.719,-4975.422,-4846.1914,-4758.068,-4637.769,-4551.856,-4548.853,-4565.439,-4526.834,-4508.247,-4513.268,-4515.041,-4574.843,-4614.5576,-4620.6816,-4615.71,-4596.8906,-4595.7646,-4576.5107,-4564.789,-4551.4355,-4539.5557,-4556.0176,-4553.4243,-4565.1875,-4594.786,-4622.045,-4657.8257,-4689.726,-4714.428,-4730.837,-4751.603,-4753.5596,-4728.923,-4708.2056,-4679.368,-4643.3975,-4640.734,-4664.8516,-4651.4946,-4628.738,-4661.1475,-4686.955,-4675.927,-4681.585,-4701.4395,-4730.5684,-4766.7104,-4769.0645,-4767.465,-4785.6196,-4760.408,-4725.9272,-4734.5034,-4726.0,-4674.3716,-4599.6245,-4552.463,-4546.1313,-4545.7056,-4577.5894,-4629.8867,-4696.2417,-4754.808,-4757.776,-4779.0244,-4809.307,-4807.959,-4809.55,-4777.8574,-4740.8696,-4715.884,-4649.6953,-4588.6797,-4564.6167,-4565.5557,-4577.262,-4568.1562,-4564.602,-4571.783,-4564.734,-4552.5146,-4538.301,-4543.6514,-4557.1636,-4553.519,-4561.644,-4579.169,-4596.7593,-4621.717,-4642.2334,-4649.8574,-4645.0347,-4663.7847,-4716.475,-4751.3794,-4771.0063,-4804.1157,-4824.8486,-4807.162,-4770.8584,-4735.517,-4672.6875,-4611.2715,-4581.9316,-4534.807,-4504.7505,-4523.3955,-4566.136,-4617.313,-4635.4956,-4638.6777,-4646.688,-4647.0513,-4645.668,-4643.6616,-4638.2344,-4623.1606,-4632.154,-4664.6675,-4663.0527,-4630.992,-4602.111,-4584.489,-4580.342,-4588.0957,-4598.552,-4596.9463,-4587.388,-4601.901,-4622.1445,-4621.994,-4626.5723,-4629.5303,-4632.1196,-4641.061,-4648.2617,-4660.1655,-4657.4307,-4653.9556,-4664.6567,-4655.5366,-4636.6387,-4635.6455,-4633.721,-4620.983,-4621.224,-4636.421,-4661.278,-4691.6743,-4715.424,-4726.0796,-4719.1807,-4724.9385,-4741.135,-4714.561,-4667.5405,-4637.789,-4608.915,-4584.3325,-4574.8696,-4582.613,-4586.3394,-4568.3506,-4564.4517,-4563.257,-4548.039,-4543.814,-4552.405,-4589.649,-4632.0283,-4647.8706,-4644.4614,-4623.7695,-4615.277,-4599.2476,-4558.774,-4552.155,-4566.7715,-4568.5347,-4571.4897,-4580.162,-4602.5376,-4622.9355,-4635.629,-4673.008,-4712.612,-4727.6836,-4736.8345,-4723.615,-4682.3784,-4649.048,-4617.7734,-4590.171,-4572.4287,-4543.605,-4552.8354,-4590.7173,-4587.9263,-4581.3535,-4625.7114,-4719.7383,-4772.4595,-4742.405,-4704.469,-4676.1606,-4629.174,-4605.667,-4668.5483,-4726.488,-4749.465,-4784.4604,-4769.2314,-4734.1484,-4678.1987,-4595.465,-4557.478,-4558.944,-4562.118,-4542.375,-4540.1064,-4535.3735,-4532.29,-4555.847,-4555.596,-4559.7256,-4539.812,-4508.1353,-4514.607,-4536.866,-4576.1655,-4601.561,-4622.6196,-4642.0415,-4663.4355,-4695.63,-4712.7666,-4723.0293,-4703.584,-4689.4727,-4706.2627,-4707.1196,-4684.8687,-4641.626,-4616.417,-4651.1675,-4723.3784,-4735.936,-4673.6025,-4627.186,-4605.7407,-4604.111,-4586.253,-4550.6455,-4559.468,-4569.357,-4588.5586,-4614.5195,-4602.304,-4609.979,-4614.3257,-4599.7456,-4611.2676,-4621.7026,-4615.908,-4598.726,-4590.466,-4585.4453,-4571.684,-4574.3813,-4588.0605,-4612.172,-4629.681,-4638.0454,-4652.3706,-4647.383,-4653.7207,-4669.9478,-4675.23,-4709.4346,-4738.7964,-4740.297,-4728.4375,-4724.3535,-4755.786,-4776.6514,-4771.4746,-4728.4375,-4660.6465,-4612.314,-4549.9478,-4506.31,-4506.0654,-4531.3633,-4571.668,-4602.0723,-4653.867,-4697.4165,-4709.488,-4718.8896,-4743.6025,-4793.6533,-4807.6943,-4777.5566,-4722.4165,-4667.7964,-4643.885,-4593.117,-4539.3267,-4518.31,-4508.9683,-4543.17,-4586.494,-4610.5845,-4642.814,-4649.8857,-4636.092,-4619.3877,-4600.5454,-4603.5684,-4593.7715,-4572.9126,-4574.85,-4572.454,-4567.7754,-4575.097,-4594.494,-4624.1367,-4642.811,-4671.5166,-4735.309,-4801.2827,-4842.725,-4847.0337,-4833.2144,-4807.9004,-4763.491,-4756.641,-4729.8457,-4647.3184,-4628.6416,-4608.138,-4532.21,-4508.119,-4513.8696,-4525.3223,-4566.0303,-4614.03,-4644.849,-4628.3677,-4612.719,-4631.584,-4627.436,-4618.772,-4622.519,-4615.9443,-4622.842,-4617.4297,-4601.344,-4627.083,-4665.2246,-4685.2876,-4699.98,-4729.8013,-4768.105,-4770.1543,-4721.633,-4674.114,-4676.175,-4671.356,-4633.7617,-4617.3027,-4623.094,-4642.488,-4650.919,-4642.5317,-4636.2314,-4617.77,-4616.862,-4625.093,-4618.819,-4637.452,-4663.47,-4674.4883,-4680.1777,-4687.074,-4704.1626,-4717.5215,-4722.4766,-4725.584,-4749.422,-4780.2876,-4774.309,-4755.3726,-4724.965,-4685.5234,-4659.673,-4627.028,-4594.9175,-4574.9385,-4576.59,-4583.53,-4586.985,-4599.4404,-4587.3535,-4583.378,-4589.983,-4592.4087,-4622.8066,-4627.392,-4635.9375,-4681.2275,-4715.6733,-4769.3267,-4809.027,-4818.15,-4852.795,-4854.719,-4812.2207,-4795.1865,-4763.6577,-4702.3516,-4679.5405,-4682.485,-4679.0996,-4671.7363,-4644.111,-4620.3457,-4601.3555,-4573.2827,-4566.9023,-4556.006,-4552.947,-4576.839,-4585.3325,-4592.305,-4595.1685,-4597.797,-4614.4326,-4621.8687,-4629.2266,-4635.087,-4650.364,-4688.5483,-4722.2793,-4733.169,-4720.6377,-4717.7446,-4714.693,-4692.5903,-4704.974,-4730.8936,-4719.4565,-4697.1675,-4679.6987,-4660.6567,-4640.457,-4630.937,-4637.4136,-4638.39,-4649.186,-4695.7876,-4723.127,-4707.8716,-4706.5864,-4712.27,-4698.63,-4689.1455,-4669.9927,-4644.7305,-4645.141,-4637.654,-4634.5947,-4659.0767,-4685.424,-4726.072,-4765.221,-4808.31,-4838.131,-4805.3765,-4756.0376,-4701.178,-4641.428,-4600.555,-4569.6196,-4561.4126,-4576.8115,-4597.0947,-4617.3047,-4634.3247,-4638.515,-4634.9355,-4628.63,-4629.472,-4650.4834,-4672.968,-4676.913,-4672.3496,-4690.3174,-4708.84,-4707.6357,-4705.1016,-4677.0005,-4645.166,-4641.7114,-4653.0747,-4693.4243,-4758.5034,-4820.626,-4851.518,-4840.792,-4787.497,-4722.6914,-4686.704,-4642.4893,-4621.3984,-4621.3345,-4585.261,-4580.877,-4588.8804,-4591.3623,-4608.4844,-4612.417,-4640.5405,-4657.4785,-4659.788,-4674.744,-4660.862,-4649.096,-4661.5576,-4693.1045,-4712.1475,-4698.0576,-4686.561,-4695.5664,-4725.8716,-4727.41,-4705.0024,-4692.8936,-4667.47,-4665.7114,-4676.465,-4673.258,-4694.486,-4707.6846,-4709.122,-4717.8286,-4705.669,-4688.0513,-4669.02,-4654.7324,-4670.193,-4698.5566,-4715.124,-4703.0283,-4683.1006,-4673.1475,-4656.514,-4639.8486,-4630.926,-4648.532,-4704.3027,-4758.618,-4801.8604,-4836.149,-4815.384,-4771.1494,-4762.6265,-4759.725,-4758.506,-4732.096,-4685.351,-4682.7065,-4669.1333,-4652.983,-4646.728,-4604.528,-4590.723,-4610.8613,-4632.261,-4631.3403,-4643.5605,-4720.6875,-4780.1006,-4804.4673,-4791.9917,-4735.966,-4689.1577,-4660.639,-4650.217,-4640.703,-4645.7114,-4656.798,-4650.6978,-4646.7876,-4649.6353,-4676.6074,-4694.935,-4707.696,-4736.931,-4748.2227,-4760.754,-4775.065,-4762.446,-4723.898,-4703.359,-4706.319,-4699.462,-4699.9385,-4694.6113,-4683.557,-4675.1377,-4661.01,-4668.3726,-4690.7563,-4715.1177,-4743.7905,-4758.9717,-4753.3003,-4752.2344,-4769.139,-4798.8364,-4837.0146,-4905.217,-5006.311,-4999.5986,-4899.841,-4846.448,-4774.3916,-4746.3003,-4770.6646,-4721.6494,-4710.702,-4720.7573,-4685.733,-4663.9204,-4650.6714,-4668.175,-4672.531,-4655.1436,-4660.1772,-4651.8667,-4623.8315,-4603.907,-4605.1997,-4593.5796,-4597.9263,-4628.1807,-4637.227,-4656.1313,-4671.525,-4681.7305,-4690.147,-4684.4683,-4699.4844,-4709.4814,-4708.1963,-4708.97,-4705.0557,-4703.8877,-4695.1245,-4693.1343,-4691.494,-4680.3813,-4687.801,-4709.348,-4735.334,-4762.157,-4792.427,-4830.9546,-4855.99,-4860.8164,-4843.695,-4813.3296,-4822.8286,-4878.5186,-4906.107,-4859.5254,-4791.759,-4748.6836,-4693.7915,-4636.17,-4604.369,-4580.7734,-4573.2266,-4583.9985,-4608.6826,-4626.873,-4624.838,-4632.2427,-4644.992,-4673.3096,-4719.203,-4762.0034,-4805.61,-4804.472,-4759.9277,-4736.5474,-4724.8545,-4687.707,-4667.959,-4711.698,-4747.379,-4745.3438,-4779.914,-4823.034,-4805.861,-4772.9165,-4746.877,-4712.58,-4682.9873,-4649.6025,-4629.1426,-4642.747,-4675.067,-4680.79,-4672.591,-4705.5117,-4737.5103,-4755.029,-4754.4805,-4731.531,-4726.3926,-4708.2964,-4691.49,-4699.747,-4704.343,-4723.9062,-4750.6514,-4760.5024,-4767.697,-4772.022,-4768.7715,-4783.2236,-4807.878,-4811.533,-4789.6304,-4735.7305,-4693.82,-4694.181,-4674.5225,-4646.4346,-4662.113,-4695.2495,-4730.023,-4746.7295,-4734.4116,-4725.1646,-4704.6616,-4670.713,-4653.7993,-4650.3237,-4662.304,-4684.4697,-4713.693,-4750.075,-4768.9937,-4778.552,-4791.1973,-4786.1875,-4765.7964,-4782.3687,-4812.0986,-4785.41,-4778.0586,-4782.955,-4736.7324,-4722.206,-4722.4604,-4712.97,-4711.5747,-4699.8486,-4707.989,-4699.9097,-4681.4727,-4692.034,-4709.6167,-4733.6743,-4736.5996,-4738.6187,-4759.859,-4770.3315,-4786.515,-4813.3965,-4815.135,-4782.07,-4753.9917,-4732.6396,-4717.028,-4713.5903,-4705.2334,-4718.283,-4730.028,-4716.538,-4710.363,-4709.4575,-4719.0063,-4738.4775,-4733.808,-4702.3433,-4695.3086,-4714.8994,-4739.5737,-4784.64,-4788.4043,-4750.952,-4726.7227,-4686.252,-4688.1514,-4746.673,-4796.238,-4844.242,-4890.108,-4955.9766,-5001.146,-4987.945,-4937.034,-4847.706,-4801.515,-4749.101,-4667.2104,-4637.661,-4605.587,-4614.8916,-4635.2446,-4635.79,-4672.1353,-4665.237,-4662.839,-4665.642,-4646.3784,-4655.464,-4658.4883,-4670.1147,-4670.2085,-4677.979,-4708.0405,-4716.1265,-4729.414,-4742.187,-4766.195,-4782.4287,-4797.5996,-4836.592,-4845.7646,-4848.8154,-4839.9155,-4812.6865,-4794.1836,-4754.5034,-4727.1313,-4731.8335,-4717.394,-4704.859,-4746.4805,-4794.5947,-4798.654,-4766.0737,-4724.695,-4714.421,-4728.2812,-4737.579,-4740.072,-4780.2827,-4833.67,-4822.0894,-4794.67,-4782.151,-4750.5156,-4710.2944,-4685.316,-4674.959,-4665.786,-4672.009,-4685.784,-4683.6255,-4669.4556,-4684.4062,-4728.4004,-4725.979,-4716.3345,-4750.5127,-4788.003,-4831.1055,-4856.853,-4847.954,-4836.799,-4819.783,-4791.2725,-4760.8096,-4728.5195,-4710.728,-4709.836,-4710.2217,-4719.7046,-4707.336,-4689.145,-4702.987,-4704.9424,-4707.9565,-4700.2104,-4690.9854,-4738.1406,-4793.861,-4837.5815,-4855.3955,-4863.4536,-4891.586,-4870.1104,-4814.47,-4764.0527,-4716.428,-4710.774,-4733.708,-4739.611,-4728.3203,-4737.415,-4760.1094,-4768.784,-4776.0815,-4761.9717,-4743.0317,-4754.613,-4766.0303,-4756.302,-4729.823,-4710.8394,-4713.6187,-4740.362,-4785.0215,-4845.063,-4932.742,-5021.6543,-5107.841,-5152.919,-5076.3335,-4936.187,-4839.399,-4771.159,-4674.735,-4610.437,-4605.873,-4600.976,-4636.43,-4672.4795,-4659.7974,-4682.189,-4692.0938,-4674.295,-4680.8237,-4675.8354,-4686.555,-4702.156
-4703.412,-4719.789,-4725.5786,-4733.9976,-4747.417,-4766.6104,-4799.4824,-4805.2607,-4803.6084,-4799.892,-4786.6436,-4784.7856,-4775.0566,-4775.38,-4791.938,-4806.632,-4831.748,-4838.4873,-4826.815,-4839.818,-4848.6143,-4823.424,-4790.1436,-4771.3066,-4783.988,-4811.9155,-4837.0723,-4839.977,-4803.3667,-4776.786,-4758.847,-4752.43,-4770.0835,-4758.1675,-4738.448,-4741.91,-4781.1235,-4843.527,-4894.644,-4915.7344,-4865.608,-4813.5615,-4781.383,-4724.2915,-4689.2983,-4675.6167,-4707.335,-4749.5566,-4750.891,-4782.5513,-4810.8955,-4826.7,-4860.365,-4875.7783,-4866.4897,-4812.2407,-4770.957,-4763.6294,-4740.547,-4747.1885,-4768.742,-4770.475,-4782.147,-4807.6836,-4816.6597,-4809.4575,-4815.3325,-4813.5576,-4813.0327,-4817.9287,-4805.772,-4797.573,-4781.3022,-4761.9253,-4742.7515,-4716.645,-4721.9653,-4737.5557,-4741.6475,-4746.057,-4748.153,-4756.606,-4766.2583,-4779.8022,-4798.6084,-4845.251,-4918.933,-4960.3496,-4972.7544,-4938.723,-4898.454,-4935.5684,-4954.806,-4917.2446,-4863.0503,-4800.886,-4765.0127,-4734.0903,-4701.8364,-4685.683,-4693.6475,-4716.977,-4733.473,-4758.0684,-4778.773,-4799.7715,-4819.6255,-4839.7773,-4861.28,-4836.4453,-4823.1606,-4831.1416,-4816.2046,-4827.473,-4836.0854,-4819.486,-4819.835,-4832.6553,-4816.656,-4787.877,-4805.1006,-4805.559,-4769.0513,-4776.703,-4806.645,-4819.9375,-4806.3286,-4782.1064,-4781.1465,-4781.4487,-4776.326,-4780.77,-4809.6333,-4843.5454,-4845.284,-4843.193,-4842.5957,-4838.712,-4836.8135,-4812.959,-4790.986,-4783.7524,-4785.384,-4811.1514,-4822.3555,-4811.999,-4807.705,-4789.6655,-4782.6953,-4812.2974,-4837.7524,-4841.3823,-4855.2754,-4887.5107,-4896.498,-4872.2383,-4854.226,-4853.0356,-4844.429,-4837.8447,-4822.069,-4788.426,-4781.062,-4780.995,-4777.9404,-4773.6675,-4755.0137,-4745.5435,-4737.9175,-4755.8867,-4780.1777,-4773.587,-4776.4556,-4770.4316,-4762.5923,-4774.853,-4789.5684,-4813.6157,-4843.7534,-4864.0596,-4872.962,-4920.5454,-4961.34,-4956.5566,-4994.5254,-5001.661,-4953.0854,-4937.8335,-4895.8374,-4829.444,-4772.4946,-4717.353,-4712.243,-4734.6567,-4741.645,-4744.331,-4753.8555,-4766.468,-4772.9873,-4785.3857,-4796.784,-4806.5767,-4817.8154,-4811.453,-4809.289,-4815.3447,-4817.751,-4840.415,-4875.3086,-4897.5483,-4902.39,-4886.7275,-4867.591,-4863.6445,-4863.765,-4862.188,-4855.523,-4839.892,-4825.8105,-4814.5425,-4810.3335,-4811.339,-4804.543,-4793.6113,-4791.302,-4805.759,-4815.3984,-4809.046,-4809.6304,-4818.9014,-4827.9307,-4834.113,-4852.9385,-4880.984,-4889.7705,-4907.108,-4923.861,-4899.502,-4880.635,-4875.1064,-4871.3696,-4907.327,-4920.976,-4879.052,-4877.3555,-4901.4766,-4874.4136,-4835.691,-4830.9795,-4822.603,-4794.8745,-4789.6597,-4797.9214,-4787.4453,-4781.1665,-4802.1978,-4837.9805,-4858.2935,-4853.6562,-4859.4795,-4883.6406,-4890.671,-4878.753,-4856.7993,-4841.8584,-4831.037,-4798.589,-4793.2095,-4804.727,-4798.4746,-4810.6333,-4800.0747,-4784.13,-4801.414,-4800.3276,-4801.1562,-4810.57,-4816.2,-4828.6543,-4831.955,-4834.9854,-4841.7734,-4850.2197,-4859.734,-4887.023,-4908.9487,-4877.0063,-4874.8755,-4920.764,-4919.4204,-4878.6826,-4844.409,-4830.4604,-4825.962,-4837.1724,-4873.5156,-4889.962,-4886.522,-4895.3906,-4912.619,-4951.928,-4977.265,-4935.374,-4895.541,-4874.313,-4827.1436,-4791.502,-4758.338,-4747.279,-4779.56,-4788.221,-4792.5156,-4803.5415,-4807.7144,-4821.935,-4823.322,-4820.0986,-4813.655,-4800.6724,-4799.287,-4800.9546,-4806.7544,-4819.405,-4828.819,-4830.345,-4838.2896,-4850.3535,-4855.647,-4867.475,-4894.6597,-4944.668,-4973.808,-4966.5967,-4980.3916,-4967.0127,-4899.5933,-4877.0254,-4886.739,-4854.573,-4820.748,-4820.972,-4846.992,-4893.183,-4915.6714,-4912.1353,-4924.0815,-4929.0796,-4916.507,-4908.9473,-4894.121,-4873.383,-4851.434,-4830.406,-4844.99,-4879.551,-4885.5137,-4898.123,-4928.771,-4927.578,-4930.141,-4928.97,-4901.464,-4915.2783,-4905.0493,-4837.088,-4808.9727,-4800.121,-4781.8813,-4782.809,-4797.864,-4815.0767,-4832.032,-4855.4883,-4864.005,-4843.0635,-4833.802,-4849.4146,-4862.3267,-4873.9795,-4879.6294,-4864.5073,-4850.283,-4836.9575,-4849.9287,-4916.049,-4960.806,-4957.921,-4936.4062,-4913.9854,-4899.7188,-4868.74,-4844.843,-4852.3423,-4878.8154,-4904.8696,-4909.5923,-4898.9517,-4860.5317,-4823.5156,-4819.377,-4805.3906,-4789.64,-4797.156,-4806.85,-4814.7544,-4826.93,-4846.785,-4873.264,-4887.378,-4890.717,-4895.432,-4905.114,-4922.5723,-4921.8486,-4907.2485,-4893.66,-4874.8384,-4867.9375,-4851.9004,-4832.97,-4833.964,-4833.882,-4849.106,-4865.044,-4880.6357,-4920.4136,-4955.387,-4988.637,-5009.1406,-5015.37,-5034.349,-5026.0093,-4989.449,-4977.931,-5008.0547,-5031.8613,-5005.3296,-4964.181,-4907.1934,-4831.644,-4782.0454,-4768.328,-4782.4014,-4787.0786,-4790.7905,-4815.8706,-4830.8003,-4838.1997,-4843.24,-4856.8247,-4874.6626,-4881.1567,-4893.863,-4901.3037,-4911.773,-4932.6577,-4944.701,-4949.0225,-4937.629,-4922.881,-4908.815,-4888.763,-4879.8906,-4877.128,-4906.7266,-4972.536,-4989.4404,-4962.252,-4948.0703,-4924.346,-4889.704,-4852.415,-4825.659,-4839.9805,-4862.679,-4863.864,-4861.015,-4889.2383,-4916.9463,-4894.813,-4890.53,-4903.2354,-4886.4614,-4881.8164,-4886.1084,-4894.6064,-4911.0396,-4909.825,-4907.7256,-4927.944,-4952.636,-4942.212,-4904.474,-4883.8735,-4886.905,-4893.272,-4893.0913,-4902.064,-4918.165,-4928.513,-4947.031,-4966.1216,-4970.6553,-4958.992,-4946.911,-4971.6797,-4989.197,-4961.1904,-4952.1196,-4946.1587,-4914.9404,-4902.131,-4894.97,-4905.1323,-4957.594,-5003.67,-5028.9775,-5065.843,-5080.866,-5035.8745,-4973.2803,-4909.504,-4856.8916,-4843.34,-4852.4775,-4869.1753,-4869.535,-4861.5586,-4872.3228,-4888.6963,-4889.6294,-4873.434,-4876.451,-4892.147,-4894.341,-4892.139,-4898.768,-4934.496,-4969.5806,-4993.7017,-5022.129,-5025.749,-5019.568,-5020.1924,-5015.737,-5004.133,-4984.209,-4963.6733,-4932.2095,-4907.561,-4912.1274,-4915.63,-4910.734,-4908.5786,-4907.156,-4899.2866,-4888.992,-4886.612,-4894.674,-4911.378,-4912.16,-4909.175,-4929.1313,-4959.624,-4982.87,-4985.0186,-4992.601,-5002.778,-4993.0117,-4994.9487,-4997.0806,-4984.8887,-4979.486,-4962.754,-4939.609,-4930.756,-4918.7686,-4934.053,-4983.181,-4997.9463,-4989.958,-4988.8184,-4976.8657,-4955.2505,-4928.761,-4916.636,-4916.589,-4915.141,-4927.915,-4958.901,-4990.728,-4998.77,-5003.4233,-4995.012,-4953.572,-4937.593,-4934.463,-4932.2124,-4952.142,-4949.344,-4940.7803,-4949.776,-4953.632,-4962.359,-4966.6533,-4966.2754,-4987.6265,-5037.8765,-5114.442,-5161.8335,-5157.9272,-5140.2905,-5076.031,-4992.6104,-4946.687,-4906.105,-4879.861,-4881.224,-4900.1357,-4921.55,-4931.748,-4951.3296,-4965.144,-4953.867,-4946.5415,-4964.096,-4978.5464,-4978.7417,-4984.628,-4988.6133,-4994.634,-4998.7373,-4997.474,-4996.897,-4988.761,-4997.4663,-5007.7593,-4993.967,-4992.193,-4995.048,-4988.0483,-4993.242,-4992.437,-4979.9067,-4984.065,-4999.281,-5012.0645,-5018.723,-5004.6353,-4973.1045,-4955.0825,-4957.2725,-4952.9854,-4936.8047,-4935.3276,-4947.2524,-4943.7676,-4945.9497,-4963.5796,-4977.0815,-5000.55,-5006.656,-4984.949,-4975.4097,-4978.6123,-4976.4395,-4964.215,-4969.438,-4974.1206,-4959.6465,-4964.8574,-4976.5303,-4992.618,-5012.03,-5029.669,-5055.208,-5074.6953,-5112.811,-5116.2886,-5078.3,-5067.3535,-5029.8022,-4996.613,-4992.1978,-4976.46,-4958.9736,-4924.276,-4919.338,-4942.089,-4958.9463,-4978.6543,-4966.3335,-4963.6196,-4996.205,-4997.0312,-4972.6704,-4981.467,-4991.968,-4974.2725,-4973.034,-4976.9976,-4962.5386,-4948.6084,-4944.6113,-4944.1772,-4941.5713,-4939.181,-4938.897,-4950.7827,-4958.991,-4954.824,-4971.2856,-5005.605,-5028.6455,-5034.0146,-5022.97,-4992.6367,-4956.558,-4954.622,-4984.6665,-4990.4893,-4989.542,-5010.669,-5009.002,-4991.1797,-4980.483,-4968.833,-4951.498,-4935.792,-4937.0605,-4932.463,-4928.911,-4937.0747,-4940.163,-4954.3027,-4964.2173,-4974.698,-5013.656,-5045.15,-5048.154,-5045.539,-5048.1426,-5050.3257,-5061.305,-5067.014,-5040.345,-5019.0776,-5009.9473,-4992.838,-4986.1406,-4966.7676,-4946.389,-4956.0044,-4976.585,-5009.1904,-5033.652,-5043.018,-5040.2583,-5026.2656,-5033.9673,-5034.3706,-5036.1313,-5061.673,-5057.0205,-5048.105,-5062.7725,-5055.0474,-5021.013,-5001.7935,-4998.536,-4982.944,-4985.1323,-5016.904,-5028.742,-5018.9917,-5026.2583,-5041.7944,-5040.6206,-5054.145,-5099.4893,-5146.4336,-5164.571,-5131.672,-5083.6396,-5054.0312,-5018.2847,-4988.798,-4975.423,-4973.211,-5005.2974,-5042.575,-5065.4263,-5082.9023,-5069.038,-5048.026,-5034.467,-5002.465,-4975.6826,-4965.32,-4966.3667,-4968.045,-4970.9707,-5006.843,-5022.7417,-5002.3296,-5008.005,-5015.35,-5022.738,-5038.6895,-5038.281,-5024.15,-4992.5117,-4985.86,-4999.9126,-5002.7075,-5018.795,-5023.6167,-5029.1753,-5030.2715,-5010.2573,-5020.805,-5020.9224,-5005.632,-5010.651,-5015.0254,-5036.708,-5055.0073,-5060.019,-5064.319,-5047.801,-5029.5913,-5035.8765,-5060.058,-5060.155,-5048.441,-5061.2974,-5060.667,-5052.205,-5051.135,-5035.143,-5029.518,-5036.631,-5038.499,-5032.907,-5021.599,-5034.7417,-5043.9766,-5047.0146,-5093.192,-5128.6655,-5109.5884,-5067.7173,-5058.6807,-5059.127,-5034.1367,-5033.2373,-5018.7363,-5009.8384,-5032.5083,-5021.361,-5025.6143,-5050.7217,-5069.662,-5082.926,-5077.1562,-5091.0796,-5099.8643,-5079.873,-5061.823,-5044.978,-5040.0757,-5044.2036,-5027.2886,-5012.751,-5017.8687,-5001.495,-4992.6895,-5009.778,-5008.1006,-5014.977,-5035.416,-5040.799,-5042.4873,-5039.8745,-5033.8174,-5030.657,-5031.6387,-5037.2246,-5042.359,-5044.2256,-5041.385,-5041.2207,-5045.595,-5055.1567,-5070.2056,-5067.686,-5059.5713,-5067.6484,-5071.85,-5077.1406,-5092.172,-5116.95,-5158.7573,-5192.803,-5203.605,-5207.9604,-5212.03,-5184.4043,-5132.304,-5112.5605,-5106.944,-5101.091,-5090.404,-5047.641,-5025.967,-5027.367,-5008.291,-4988.265,-4986.6,-4995.178,-4986.597,-4977.121,-4978.7173,-4975.816,-4975.3,-4974.785,-4980.728,-4993.959,-5004.9907,-5009.5527,-5017.88,-5038.116,-5046.9546,-5050.687,-5064.168,-5086.4194,-5112.573,-5122.481,-5121.1587,-5119.2017,-5123.365,-5136.397,-5138.2124,-5121.8994,-5110.748,-5125.742,-5122.082,-5079.6543,-5078.7656,-5131.724,-5153.1377,-5114.264,-5072.8926,-5058.28,-5038.9707,-5013.621,-5009.055,-5041.187,-5091.9556,-5101.4004,-5068.36,-5055.1714,-5048.368,-5012.1772,-4990.7656,-4992.608,-4990.4165,-4990.728,-4988.974,-4999.7666,-5015.9443,-5024.011,-5051.112,-5066.881,-5063.149,-5071.91,-5080.6455,-5083.7583,-5086.831,-5086.7725,-5079.0938,-5070.141,-5063.6787,-5061.1743,-5062.812,-5062.203,-5057.0566,-5052.301,-5074.215,-5113.5723,-5150.93,-5168.3296,-5141.292,-5129.7344,-5147.5586,-5151.561,-5151.331,-5136.297,-5110.0967,-5090.369,-5070.73,-5060.757,-5066.96,-5072.815,-5076.5513,-5078.051,-5053.1475,-5029.843,-5024.0317,-5013.298,-5022.4443,-5038.004,-5053.579,-5087.666,-5094.1455,-5074.8564,-5079.3022,-5083.1436,-5052.9956,-5034.1304,-5040.803,-5043.7646,-5055.8926,-5064.0107,-5067.1406,-5069.0396,-5056.2593,-5062.6543,-5080.732,-5103.6514,-5124.675,-5113.5356,-5107.808,-5108.074,-5089.488,-5075.5503,-5077.2236,-5082.339,-5074.948,-5059.347,-5053.6157,-5063.735,-5067.992,-5063.7217,-5067.9478,-5075.56,-5094.377,-5103.078,-5099.9976,-5143.7417,-5183.993,-5165.859,-5155.896,-5168.435,-5192.0234,-5210.726,-5169.1104,-5126.0024,-5121.869,-5091.3457,-5074.0195,-5089.5156,-5078.7153,-5070.512,-5059.9937,-5033.496,-5044.6284,-5052.093,-5028.9243,-5032.6406,-5041.9287,-5026.2603,-5021.1177,-5033.3438,-5055.5767,-5093.0723,-5128.0693,-5151.133,-5162.626,-5161.3574,-5139.633,-5104.7373,-5092.001,-5092.988,-5103.9746,-5121.157,-5107.7466,-5096.6226,-5102.352,-5096.7935,-5096.668,-5099.4507,-5091.743,-5077.068,-5066.384,-5060.6694,-5062.0815,-5081.3506,-5099.1777,-5130.879,-5166.443,-5162.0625,-5157.349,-5166.834,-5189.305,-5212.7954,-5166.347,-5105.901,-5097.3833,-5083.496,-5066.3916,-5050.6226,-5039.1475,-5060.0156,-5081.5444,-5105.6084,-5117.0703,-5109.01,-5115.785,-5112.656,-5105.642,-5080.7363,-5051.638,-5067.412,-5081.4336,-5100.7036,-5125.9453,-5128.8423,-5142.37,-5151.69,-5141.58,-5131.003,-5125.1597,-5134.5747,-5148.3657,-5144.0757,-5177.102,-5247.6567,-5259.497,-5241.638,-5220.5254,-5183.158,-5174.3003,-5167.8716,-5150.797,-5120.5522,-5072.871,-5050.2876,-5034.9194,-5041.4106,-5067.7783,-5082.0986,-5115.264,-5128.2056,-5116.954,-5108.906,-5091.391,-5080.919,-5059.029,-5043.7197,-5061.0244,-5084.4253,-5095.0522,-5106.0312,-5140.126,-5164.2773,-5182.235,-5193.308,-5187.3896,-5191.313,-5171.1997,-5150.34,-5147.68,-5137.737,-5133.0576,-5128.5244,-5132.07,-5118.3286,-5104.934,-5105.8574,-5085.73,-5080.981,-5078.42,-5096.6763,-5142.188,-5165.6343,-5202.024,-5223.832,-5210.4126,-5195.0786,-5190.6147,-5185.689,-5144.5483,-5115.9917,-5111.4795,-5101.5728,-5118.2505,-5129.3477,-5105.7773,-5085.8257
-5085.1167,-5087.48,-5095.8594,-5128.889,-5157.4297,-5162.9346,-5164.9204,-5157.9277,-5160.66,-5176.4937,-5178.8984,-5194.451,-5214.8496,-5225.606,-5235.306,-5220.266,-5211.549,-5206.9897,-5184.8164,-5175.171,-5158.244,-5149.461,-5145.3315,-5122.203,-5119.9365,-5111.225,-5107.712,-5128.1567,-5123.008,-5122.679,-5152.196,-5185.05,-5190.7856,-5217.916,-5305.0767,-5309.768,-5221.3286,-5192.675,-5188.8457,-5134.3076,-5103.289,-5115.6245,-5119.655,-5127.448,-5134.811,-5139.6655,-5144.021,-5133.7607,-5132.489,-5131.8633,-5130.046,-5130.0527,-5122.1406,-5129.623,-5145.688,-5151.122,-5146.2812,-5146.5073,-5159.4253,-5174.66,-5187.6914,-5207.288,-5256.56,-5315.7554,-5339.5977,-5317.751,-5285.338,-5271.3247,-5235.9277,-5181.4194,-5147.4414,-5110.1333,-5085.98,-5092.324,-5081.9956,-5078.3027,-5110.2544,-5145.424,-5176.2637,-5198.8643,-5231.1777,-5271.9873,-5274.519,-5258.134,-5232.5186,-5193.3115,-5159.593,-5116.6,-5099.601,-5116.353,-5129.1494,-5145.828,-5149.516,-5149.531,-5148.3125,-5134.653,-5149.3296,-5163.856,-5154.226,-5161.815,-5177.3784,-5185.7974,-5193.692,-5202.3525,-5213.582,-5211.092,-5209.48,-5227.4775,-5231.668,-5229.0996,-5239.501,-5243.9634,-5236.192,-5216.4463,-5199.6826,-5189.5557,-5175.7803,-5177.781,-5181.211,-5161.144,-5158.6953,-5178.4624,-5191.017,-5210.0166,-5218.859,-5219.981,-5236.4556,-5254.12,-5284.8145,-5298.4253,-5272.7144,-5232.8086,-5190.578,-5200.702,-5232.745,-5242.76,-5266.3853,-5265.6562,-5261.838,-5276.606,-5233.322,-5175.685,-5164.454,-5156.3867,-5139.1367,-5132.8247,-5155.825,-5179.981,-5170.989,-5181.9033,-5201.892,-5206.1133,-5229.3,-5229.3354,-5202.5903,-5193.8735,-5208.0044,-5223.08,-5217.274,-5206.2114,-5193.834,-5207.287,-5233.9443,-5222.226,-5232.5376,-5268.783,-5262.945,-5250.9126,-5257.581,-5265.7295,-5274.2393,-5263.793,-5237.3306,-5213.9844,-5196.679,-5184.991,-5184.127,-5193.4478,-5195.253,-5196.1934,-5206.6934,-5227.758,-5246.0015,-5238.924,-5225.272,-5205.168,-5184.796,-5193.747,-5204.85,-5203.7593,-5207.019,-5207.6616,-5198.955,-5185.0864,-5180.9526,-5189.509,-5193.2036,-5194.675,-5188.496,-5179.5566,-5192.676,-5199.36,-5203.5166,-5225.8687,-5252.243,-5301.942,-5340.8574,-5334.858,-5321.7837,-5314.0137,-5296.8027,-5254.606,-5207.213,-5170.5156,-5154.664,-5175.7627,-5186.822,-5183.288,-5190.865,-5194.684,-5185.757,-5162.222,-5153.4727,-5154.2056,-5159.665,-5173.1724,-5169.8794,-5182.374,-5197.1436,-5208.4634,-5235.286,-5228.6465,-5222.0884,-5250.5063,-5276.247,-5302.1997,-5334.7095,-5339.909,-5304.016,-5270.2056,-5274.316,-5284.929,-5257.7017,-5226.399,-5231.0024,-5264.607,-5294.9927,-5286.114,-5259.5493,-5223.025,-5184.069,-5166.4424,-5160.5347,-5173.203,-5186.7495,-5198.267,-5217.9575,-5221.374,-5220.2153,-5212.457,-5197.611,-5205.398,-5220.806,-5218.516,-5207.8765,-5203.3247,-5197.3896,-5193.947,-5194.635,-5193.45,-5212.45,-5228.561,-5233.3477,-5246.781,-5243.5254,-5251.592,-5265.944,-5261.6,-5274.923,-5272.622,-5254.491,-5269.5566,-5293.8765,-5293.205,-5269.009,-5242.349,-5229.947,-5237.2007,-5252.727,-5292.52,-5356.0,-5384.444,-5373.628,-5361.362,-5350.944,-5311.3936,-5262.0947,-5235.409,-5210.677,-5187.7207,-5171.5737,-5183.6133,-5200.0894,-5200.546,-5221.852,-5226.627,-5228.304,-5239.171,-5223.464,-5218.3364,-5225.6826,-5232.871,-5241.336,-5260.3184,-5280.044,-5265.023,-5259.236,-5271.631,-5269.627,-5268.7305,-5268.573,-5269.0107,-5264.78,-5261.983,-5274.631,-5271.103,-5251.538,-5247.8193,-5256.5205,-5265.2734,-5268.802,-5260.848,-5255.467,-5280.7554,-5304.635,-5291.912,-5286.445,-5297.2446,-5285.562,-5258.092,-5252.6523,-5267.024,-5268.4766,-5270.202,-5280.299,-5282.0825,-5282.0557,-5284.953,-5273.11,-5234.541,-5209.367,-5219.1006,-5233.837,-5237.655,-5233.8613,-5235.2744,-5239.2983,-5237.2935,-5237.7983,-5240.2383,-5235.2847,-5241.3335,-5256.873,-5259.376,-5273.9297,-5301.192,-5319.5435,-5330.006,-5339.138,-5338.3257,-5303.3555,-5272.987,-5258.558,-5240.304,-5242.501,-5247.8413,-5259.8525,-5270.6626,-5256.156,-5264.2373,-5288.1216,-5290.7397,-5281.3633,-5266.673,-5249.441,-5227.744,-5205.747,-5204.599,-5227.507,-5245.564,-5262.63,-5291.014,-5309.37,-5314.381,-5306.006,-5300.56,-5297.143,-5280.3247,-5290.334,-5311.0605,-5313.998,-5312.436,-5286.4307,-5261.829,-5251.7544,-5236.979,-5238.7695,-5247.8916,-5252.6436,-5258.7236,-5271.5825,-5297.497,-5310.46,-5303.1,-5295.1143,-5283.8896,-5275.8687,-5281.601,-5285.718,-5286.8633,-5282.669,-5265.452,-5257.0483,-5273.9434,-5293.3994,-5291.4824,-5311.2974,-5345.5938,-5337.706,-5326.275,-5319.647,-5322.3584,-5339.9365,-5314.5728,-5302.87,-5327.948,-5325.4595,-5329.1216,-5329.667,-5300.0703,-5288.753,-5282.906,-5255.6313,-5243.382,-5246.4546,-5235.8066,-5225.3535,-5213.9326,-5197.4976,-5209.655,-5237.6196,-5253.128,-5264.1875,-5272.8325,-5286.657,-5306.6836,-5330.685,-5355.785,-5356.812,-5338.113,-5316.528,-5303.562,-5308.4805,-5305.336,-5294.705,-5293.0073,-5299.8276,-5311.5957,-5314.3267,-5315.849,-5300.4556,-5272.875,-5266.1045,-5264.157,-5278.588,-5295.2754,-5294.0356,-5304.632,-5317.42,-5335.576,-5348.8604,-5348.5737,-5382.623,-5421.3853,-5418.5005,-5411.4243,-5390.362,-5333.768,-5294.122,-5272.093,-5254.4697,-5248.8047,-5243.554,-5259.981,-5278.531,-5284.8345,-5292.785,-5305.052,-5331.2065,-5331.045,-5325.6978,-5336.2695,-5329.857,-5330.6816,-5334.2383,-5360.4106,-5387.613,-5357.703,-5347.543,-5351.247,-5326.946,-5327.0493,-5327.455,-5323.8594,-5333.0127,-5323.574,-5315.6636,-5319.9287,-5327.518,-5328.2373,-5315.0493,-5317.6104,-5335.252,-5355.0273,-5355.5156,-5345.443,-5384.2983,-5428.202,-5424.361,-5411.5063,-5392.705,-5362.315,-5353.42,-5367.062,-5370.1895,-5366.559,-5375.3545,-5368.086,-5331.0317,-5299.401,-5290.8765,-5292.1294,-5284.41,-5276.393,-5305.635,-5376.7363,-5436.132,-5449.107,-5441.698,-5410.857,-5361.4844,-5326.229,-5288.5913,-5279.895,-5305.243,-5321.5723,-5348.448,-5366.886,-5368.8887,-5368.61,-5374.566,-5404.973,-5442.8384,-5481.085,-5465.505,-5421.08,-5404.414,-5349.171,-5308.5723,-5283.122,-5237.535,-5262.342,-5298.929,-5316.8765,-5342.525,-5351.06,-5365.1055,-5356.7646,-5343.657,-5349.6577,-5347.434,-5347.941,-5338.134,-5320.7153,-5308.319,-5305.362,-5308.238,-5305.988,-5318.5996,-5346.2026,-5368.0186,-5374.023,-5376.3857,-5386.53,-5412.8394,-5453.287,-5469.9556,-5470.684,-5469.241,-5442.622,-5430.256,-5460.1606,-5480.8022,-5469.405,-5449.7896,-5425.5,-5379.22,-5338.198,-5343.28,-5356.1,-5352.3887,-5351.1094,-5351.453,-5359.1475,-5354.247,-5345.8555,-5357.4155,-5355.748,-5343.75,-5326.02,-5308.3228,-5313.824,-5319.698,-5316.256,-5307.418,-5299.7876,-5306.8438,-5326.7485,-5347.1016,-5355.0537,-5383.0483,-5436.3257,-5459.3164,-5451.727,-5446.181,-5439.771,-5427.8623,-5418.9214,-5408.367,-5390.7446,-5378.6147,-5383.587,-5395.47,-5386.23,-5371.1836,-5393.5376,-5411.338,-5391.5884,-5380.491,-5370.116,-5357.7734,-5365.393,-5365.3564,-5371.9893,-5394.1777,-5404.674,-5425.014,-5453.3003,-5459.4673,-5457.5317,-5450.9404,-5425.444,-5387.2866,-5340.566,-5305.893,-5298.1855,-5309.2217,-5328.871,-5339.728,-5359.408,-5377.3247,-5382.127,-5397.1875,-5393.1357,-5401.303,-5429.394,-5433.524,-5443.606,-5421.349,-5362.793,-5333.293,-5314.93,-5296.9023,-5292.7544,-5301.393,-5317.077,-5331.7188,-5345.2227,-5367.4175,-5393.932,-5397.617,-5382.1953,-5378.905,-5400.3535,-5416.1646,-5416.133,-5418.3525,-5400.076,-5388.5786,-5394.423,-5367.884,-5344.169,-5336.616,-5329.9536,-5344.854,-5356.934,-5354.574,-5358.1577,-5367.5664,-5368.8184,-5369.6846,-5380.7397,-5386.9365,-5392.529,-5397.744,-5401.2837,-5415.4653,-5422.8174,-5402.827,-5374.7603,-5378.5957,-5388.7715,-5369.11,-5360.0747,-5373.5347,-5396.193,-5424.134,-5447.8228,-5480.095,-5497.8726,-5478.8906,-5460.6895,-5456.6094,-5456.083,-5448.7935,-5396.4014,-5353.6685,-5389.9297,-5403.719,-5374.1084,-5357.096,-5339.3154,-5345.6885,-5351.2505,-5353.217,-5372.6216,-5373.016,-5365.916,-5357.458,-5358.066,-5355.615,-5340.8247,-5345.7144,-5348.202,-5354.3506,-5363.323,-5363.854,-5376.918,-5375.9175,-5372.817,-5399.759,-5427.6084,-5446.8877,-5472.5024,-5490.2583,-5494.538,-5493.075,-5483.652,-5474.848,-5453.2974,-5414.2837,-5389.212,-5363.519,-5341.049,-5366.37,-5393.635,-5393.7188,-5419.19,-5448.0938,-5430.338,-5402.6123,-5405.5093,-5403.3994,-5402.9146,-5421.8257,-5423.6694,-5440.324,-5448.9717,-5438.9326,-5465.7085,-5463.078,-5435.702,-5417.1245,-5378.2363,-5360.3345,-5372.275,-5388.711,-5393.5903,-5390.9473,-5391.145,-5395.113,-5421.1772,-5449.0312,-5455.507,-5451.989,-5453.0957,-5457.109,-5468.032,-5490.8174,-5493.8037,-5485.6396,-5484.6,-5474.5376,-5461.386,-5427.92,-5375.5195,-5357.147,-5362.4863,-5361.863,-5376.378,-5392.296,-5396.739,-5424.0854,-5454.9185,-5458.394,-5454.2744,-5454.4395,-5467.3765,-5465.2285,-5436.474,-5427.5713,-5423.5986,-5420.252,-5430.307,-5431.3555,-5436.9746,-5434.616,-5432.987,-5454.0586,-5448.6626,-5442.7793,-5454.368,-5427.713,-5410.6294,-5422.692,-5420.1333,-5421.569,-5416.6694,-5403.533,-5410.399,-5435.5,-5460.755,-5465.185,-5476.5547,-5497.8677,-5476.4355,-5433.1704,-5427.0386,-5432.426,-5412.4946,-5398.0664,-5401.167,-5400.6147,-5397.9507,-5417.9434,-5439.7,-5425.164,-5417.251,-5432.7573,-5431.9814,-5416.338,-5421.7944,-5455.2544,-5470.0596,-5453.2896,-5418.8584,-5401.0117,-5422.2593,-5428.652,-5434.9434,-5447.193,-5441.6753,-5455.5835,-5452.3013,-5439.1445,-5441.4424,-5429.129,-5437.0107,-5458.1074,-5472.0015,-5476.678,-5465.552,-5472.3965,-5489.341,-5484.7324,-5459.8223,-5444.147,-5457.395,-5477.287,-5481.534,-5485.9766,-5509.0205,-5509.01,-5478.7344,-5453.588,-5427.527,-5402.249,-5386.3833,-5380.926,-5370.987,-5366.361,-5384.803,-5395.3774,-5400.2397,-5403.3604,-5401.274,-5409.3955,-5421.762,-5435.52,-5448.242,-5466.754,-5476.4316,-5468.4375,-5485.0967,-5506.027,-5499.573,-5504.628,-5515.7627,-5503.554,-5489.7734,-5468.0103,-5425.513,-5399.7085,-5402.799,-5409.818,-5410.97,-5428.554,-5446.6777,-5438.8696,-5434.0044,-5435.794,-5444.873,-5446.0654,-5437.624,-5450.9775,-5445.859,-5434.6763,-5457.1133,-5489.264,-5509.7856,-5507.921,-5502.77,-5489.577,-5471.2197,-5459.535,-5447.7285,-5450.627,-5457.204,-5459.315,-5442.6953,-5441.429,-5491.806,-5511.383,-5502.8457,-5511.1416,-5498.8203,-5467.826,-5443.168,-5436.902,-5453.951,-5479.9453,-5478.5566,-5458.365,-5466.0845,-5464.7446,-5444.361,-5456.9365,-5463.6143,-5453.9824,-5457.8877,-5436.1436,-5420.231,-5430.597,-5425.779,-5426.414,-5421.771,-5414.531,-5419.349,-5417.445,-5421.2334,-5430.84,-5448.701,-5461.009,-5480.596,-5508.6865,-5503.772,-5499.2134,-5490.463,-5485.3433,-5505.7256,-5509.2314,-5519.2104,-5535.2563,-5544.892,-5553.8022,-5539.702,-5528.5454,-5510.045,-5468.2725,-5439.721,-5443.7397,-5466.0103,-5460.7837,-5452.5913,-5461.3735,-5450.274,-5451.74,-5473.4526,-5483.4087,-5476.775,-5468.7065,-5476.355,-5462.8057,-5431.2627,-5420.781,-5418.8057,-5419.07,-5422.0684,-5427.9575,-5436.569,-5449.058,-5465.564,-5468.626,-5467.997,-5470.246,-5467.0986,-5474.258,-5484.777,-5483.786,-5485.56,-5490.2935,-5479.445,-5464.4834,-5464.0264,-5458.556,-5455.8413,-5477.5615,-5488.2305,-5486.573,-5492.5596,-5481.089,-5469.5215,-5468.534,-5461.6465,-5463.91,-5455.1494,-5448.132,-5462.719,-5460.5835,-5469.108,-5500.3486,-5516.095,-5515.4727,-5514.6396,-5519.6074,-5507.8203,-5488.1577,-5477.0703,-5467.676,-5479.2764,-5509.67,-5524.2617,-5509.6523,-5490.3633,-5482.5176,-5472.8555,-5457.0396,-5470.8564,-5519.295,-5535.554,-5516.8965,-5492.0156,-5475.026,-5480.859,-5474.289,-5474.564,-5475.371,-5444.5522,-5440.269,-5445.667,-5445.197,-5456.8022,-5456.8203,-5464.7314,-5465.4604,-5459.997,-5479.7617,-5498.8047,-5517.034,-5543.9487,-5563.9497,-5565.1963,-5549.311,-5511.5815,-5468.712,-5457.9575,-5451.702,-5446.3794,-5462.51,-5477.818,-5503.7217,-5524.2944,-5512.8574,-5499.3174,-5491.39,-5485.619,-5483.6313,-5476.4863,-5463.9766,-5458.4287,-5465.191,-5462.953,-5457.4336,-5465.865,-5474.5337,-5480.96,-5483.585,-5487.894,-5498.272,-5505.09,-5514.55,-5518.9897,-5519.2324,-5530.9087,-5540.9062,-5547.5264,-5555.213,-5546.691,-5543.58,-5570.199,-5580.572,-5578.8774,-5592.4126,-5568.906,-5547.1904,-5552.1367,-5493.3237,-5438.916,-5456.767,-5480.7812,-5493.169,-5481.4897,-5490.471,-5524.2495,-5514.634,-5504.555,-5497.297,-5471.147,-5450.0825,-5453.9854,-5477.9473,-5483.2573,-5508.9966,-5537.1807,-5523.15,-5520.1123,-5511.7725,-5492.326,-5502.326,-5523.1255,-5529.453,-5529.9517,-5538.4956,-5549.3657,-5559.0244,-5558.422,-5550.6255,-5554.358,-5556.7397,-5551.3306,-5554.9263,-5568.7056,-5581.2354,-5590.4185,-5600.486,-5597.5703,-5560.9062,-5511.1836,-5482.9805,-5464.7695,-5448.7466,-5450.9756,-5466.123,-5484.5405,-5492.4106,-5482.2275,-5475.6226,-5474.756,-5467.994,-5459.321
-5453.374,-5451.927,-5459.9346,-5485.093,-5509.05,-5524.3066,-5537.018,-5548.07,-5576.2095,-5591.432,-5582.6245,-5578.168,-5567.06,-5550.1084,-5525.818,-5510.7793,-5511.898,-5513.729,-5529.4214,-5527.2466,-5503.774,-5489.226,-5483.1284,-5504.8486,-5521.5835,-5525.706,-5565.9956,-5600.361,-5612.3013,-5613.5283,-5582.4517,-5553.8687,-5534.0327,-5526.2495,-5530.407,-5508.0645,-5501.2607,-5516.997,-5544.1562,-5591.0806,-5591.638,-5573.504,-5570.823,-5540.229,-5511.75,-5489.707,-5470.5444,-5472.0195,-5474.664,-5490.933,-5503.975,-5500.345,-5514.355,-5525.756,-5515.476,-5505.451,-5508.5806,-5509.029,-5495.534,-5479.6245,-5465.5864,-5465.4434,-5471.902,-5479.9507,-5506.179,-5522.91,-5527.9507,-5553.181,-5576.8594,-5581.483,-5579.8135,-5574.9917,-5571.7505,-5571.572,-5569.103,-5552.991,-5544.781,-5567.153,-5559.172,-5540.565,-5580.3184,-5605.6333,-5602.522,-5614.1577,-5592.6616,-5549.7466,-5528.0854,-5525.7607,-5538.5996,-5539.49,-5546.0933,-5574.1733,-5593.128,-5607.678,-5604.0396,-5586.8667,-5572.3955,-5540.2305,-5519.638,-5514.774,-5492.9556,-5477.2686,-5482.7954,-5486.6406,-5488.4717,-5500.4546,-5508.904,-5514.358,-5542.599,-5571.547,-5563.7593,-5556.9595,-5567.008,-5560.7007,-5555.316,-5556.737,-5558.9463,-5568.2646,-5559.318,-5545.973,-5538.5396,-5516.393,-5518.566,-5540.829,-5536.7837,-5528.8677,-5535.4263,-5542.9326,-5545.3867,-5553.824,-5568.379,-5571.2153,-5575.867,-5581.4844,-5569.399,-5550.1504,-5528.8906,-5532.3057,-5558.4155,-5551.215,-5531.751,-5537.265,-5538.2505,-5526.94,-5534.7114,-5542.2266,-5526.5015,-5528.974,-5546.2983,-5568.8047,-5585.15,-5566.41,-5553.646,-5543.773,-5527.0186,-5522.338,-5511.655,-5509.6094,-5522.271,-5533.712,-5532.097,-5548.851,-5600.7197,-5631.6523,-5646.5327,-5652.4805,-5636.5044,-5608.987,-5583.751,-5592.6074,-5610.653,-5635.3237,-5662.403,-5640.787,-5614.483,-5599.0654,-5565.941,-5545.728,-5525.007,-5496.131,-5486.4414,-5473.7266,-5462.4395,-5467.376,-5474.2065,-5489.5776,-5501.3975,-5512.9316,-5536.1455,-5560.4165,-5577.788,-5572.0225,-5574.298,-5596.649,-5607.729,-5612.569,-5616.0244,-5614.6196,-5608.567,-5623.367,-5626.8706,-5578.704,-5547.091,-5542.5703,-5546.9243,-5563.5034,-5556.6577,-5525.6763,-5504.868,-5510.6426,-5512.4556,-5508.02,-5509.264,-5505.7065,-5510.435,-5512.105,-5516.496,-5530.0913,-5546.627,-5569.481,-5567.1885,-5564.2793,-5585.7954,-5593.8843,-5598.5913,-5618.18,-5626.4277,-5612.7114,-5599.4956,-5600.765,-5607.545,-5608.7593,-5610.4067,-5598.122,-5564.688,-5547.446,-5538.0,-5530.611,-5535.432,-5537.551,-5544.9624,-5544.9355,-5544.0923,-5545.739,-5537.5845,-5537.7456,-5529.387,-5531.407,-5544.7515,-5540.9976,-5553.7554,-5581.408,-5608.4517,-5618.42,-5610.2544,-5607.7026,-5598.8936,-5581.188,-5559.4736,-5553.847,-5567.925,-5579.7026,-5583.3994,-5572.152,-5561.5986,-5559.282,-5570.315,-5574.51,-5557.116,-5566.8027,-5577.136,-5562.5854,-5565.112,-5577.167,-5589.618,-5605.579,-5607.636,-5607.2246,-5607.494,-5591.6,-5592.6675,-5600.3467,-5586.0366,-5580.9106,-5580.6265,-5582.962,-5587.2227,-5597.1973,-5624.6323,-5626.8145,-5608.296,-5603.1187,-5597.135,-5585.1665,-5587.625,-5595.974,-5601.9316,-5622.205,-5621.2803,-5601.758,-5596.844,-5588.5737,-5585.6133,-5587.76,-5598.056,-5607.639,-5580.742,-5556.549,-5552.041,-5550.6235,-5546.2466,-5510.8994,-5506.8477,-5551.0537,-5554.6943,-5547.1445,-5560.9062,-5568.504,-5580.4937,-5592.9346,-5611.0547,-5627.6504,-5613.9473,-5584.681,-5568.287,-5581.3535,-5593.9043,-5580.4824,-5567.2593,-5554.8574,-5542.0835,-5536.1597,-5540.8545,-5553.275,-5550.1367,-5544.4023,-5553.5747,-5584.938,-5624.7876,-5626.983,-5614.15,-5618.6885,-5606.9204,-5587.0117,-5599.671,-5598.0728,-5564.3403,-5562.9644,-5569.946,-5570.995,-5592.8037,-5610.6147,-5626.47,-5629.094,-5636.752,-5662.373,-5642.4907,-5604.478,-5581.672,-5564.2246,-5562.56,-5558.5186,-5558.113,-5551.218,-5540.8115,-5548.983,-5534.197,-5516.9395,-5527.7524,-5530.592,-5526.3647,-5526.8926,-5537.4473,-5547.4165,-5530.2393,-5498.7983,-5475.9473,-5468.501,-5459.402,-5459.235,-5481.2,-5470.7905,-5463.3936,-5481.151,-5462.011,-5449.9062,-5454.829,-5470.871,-5494.745,-5471.748,-5447.9697,-5424.355,-5388.2656,-5375.666,-5357.105,-5354.307,-5368.4717,-5379.0,-5390.5127,-5387.0815,-5402.957,-5425.067,-5423.623,-5430.595,-5462.423,-5493.603,-5485.2056,-5464.3677,-5451.6294,-5443.107,-5421.4287,-5373.531,-5362.2593,-5373.0977,-5384.316,-5398.244,-5376.7485,-5364.0537,-5360.787,-5360.2812,-5371.622,-5363.9165,-5368.933,-5377.9277,-5394.5234,-5426.3438,-5431.078,-5432.9717,-5422.106,-5386.826,-5373.0083,-5373.738,-5374.672,-5389.4795,-5405.957,-5415.987,-5424.187,-5424.8716,-5419.6987,-5412.116,-5414.177,-5421.399,-5424.2075,-5424.6284,-5418.197,-5416.652,-5410.34,-5403.046,-5412.3267,-5426.92,-5437.808,-5435.7793,-5452.006,-5479.986,-5480.2153,-5481.7964,-5482.4688,-5472.52,-5474.333,-5480.328,-5483.5034,-5487.535,-5487.775,-5486.61,-5502.0244,-5534.121,-5560.335,-5560.162,-5531.8584,-5507.1724,-5508.6514,-5511.31,-5495.371,-5482.33,-5491.402,-5520.8237,-5554.2393,-5571.547,-5580.4805,-5587.7583,-5574.7207,-5554.171,-5536.2954,-5518.204,-5529.031,-5536.661,-5514.1196,-5489.249,-5465.376,-5473.962,-5498.4883,-5502.39,-5506.8804,-5510.013,-5512.299,-5510.8296,-5515.1577,-5531.355,-5540.063,-5543.0425,-5541.0474,-5550.9043,-5553.895,-5543.117,-5545.9434,-5547.8564,-5561.4673,-5570.145,-5575.489,-5591.6025,-5586.6763,-5587.247,-5572.7554,-5550.7974,-5559.6216,-5559.592,-5576.033,-5600.197,-5604.3,-5621.7026,-5636.1514,-5640.031,-5636.579,-5622.1816,-5606.88,-5581.7974,-5549.752,-5536.066,-5551.2114,-5558.92,-5548.8706,-5550.9253,-5550.598,-5552.3413,-5563.607,-5555.3955,-5551.0884,-5579.629,-5604.5405,-5612.4136,-5630.588,-5620.7095,-5579.052,-5569.421,-5579.178,-5593.883,-5608.573,-5608.0063,-5611.485,-5618.1763,-5621.5483,-5621.3833,-5610.972,-5584.477,-5578.407,-5606.9478,-5609.653,-5592.9985,-5581.212,-5584.8345,-5612.7207,-5621.925,-5611.44,-5606.603,-5619.223,-5624.504,-5610.7544,-5606.7954,-5600.9053,-5611.549,-5632.497,-5644.484,-5657.0874,-5641.7075,-5620.4136,-5597.7803,-5573.9,-5571.175,-5567.0938,-5584.509,-5595.2305,-5568.08,-5563.3184,-5576.4463,-5589.802,-5605.143,-5609.764,-5620.7637,-5634.217,-5643.9316,-5663.5386,-5677.2046,-5683.1294,-5686.0615,-5664.0356,-5629.4453,-5606.9014,-5591.347,-5587.814,-5601.375,-5612.024,-5605.9424,-5598.633,-5602.6836,-5606.4204,-5612.3145,-5628.4937,-5632.8467,-5628.6826,-5631.0557,-5617.0605,-5607.0073,-5614.4146,-5603.066,-5592.752,-5592.9043,-5595.0054,-5627.4795,-5652.893,-5645.9517,-5672.9595,-5716.0312,-5717.198,-5718.368,-5727.92,-5708.2285,-5685.3345,-5672.3584,-5638.8247,-5614.908,-5609.107,-5578.438,-5565.432,-5575.16,-5579.454,-5590.272,-5588.655,-5595.774,-5602.828,-5598.3003,-5606.9756,-5600.4473,-5595.202,-5599.995,-5600.2344,-5608.5205,-5607.904,-5605.092,-5611.6445,-5623.159,-5644.099,-5662.279,-5662.1074,-5648.2847,-5650.45,-5666.919,-5666.778,-5667.525,-5677.135,-5666.5327,-5655.838,-5660.9526,-5665.3813,-5669.722,-5658.661,-5643.142,-5640.6367,-5637.3545,-5643.008,-5650.781,-5647.4663,-5633.268,-5622.2056,-5633.923,-5639.5083,-5629.222,-5625.6924,-5625.2456,-5621.71,-5630.855,-5646.798,-5642.4067,-5659.989,-5695.0293,-5685.8735,-5668.5664,-5649.835,-5629.524,-5633.8975,-5632.064,-5628.1274,-5623.463,-5632.2964,-5655.492,-5654.849,-5655.241,-5652.635,-5643.9146,-5630.245,-5622.0464,-5646.295,-5650.395,-5649.705,-5663.075,-5667.0024,-5660.6533,-5631.4985,-5640.3154,-5661.483,-5652.0396,-5673.17,-5691.231,-5690.955,-5701.8433,-5703.3438,-5690.8003,-5674.205,-5661.9062,-5654.746,-5655.8345,-5657.286,-5658.1694,-5667.082,-5663.149,-5670.0938,-5714.048,-5742.413,-5748.5347,-5751.0903,-5726.764,-5694.7676,-5658.907,-5625.2275,-5627.659,-5636.651,-5643.0347,-5654.6943,-5657.943,-5655.722,-5654.832,-5654.878,-5641.195,-5629.8896,-5630.449,-5636.277,-5646.642,-5649.785,-5654.7983,-5663.2944,-5682.455,-5698.3,-5713.8374,-5754.2485,-5757.8555,-5729.5864,-5719.166,-5713.078,-5723.3306,-5752.928,-5767.0034,-5737.7705,-5708.4893,-5698.6543,-5678.486,-5686.959,-5700.869,-5675.774,-5659.317,-5653.493,-5648.2324,-5654.8975,-5653.6426,-5663.448,-5690.1577,-5700.1396,-5697.448,-5696.969,-5708.3135,-5696.9775,-5668.366,-5669.249,-5650.6904,-5630.6636,-5647.1357,-5652.548,-5655.329,-5659.402,-5657.7837,-5665.832,-5678.0225,-5684.46,-5690.2993,-5716.213,-5737.765,-5730.0547,-5718.4883,-5714.794,-5710.238,-5704.44,-5710.2056,-5710.5557,-5697.456,-5702.5127,-5715.2573,-5717.577,-5718.9233,-5716.779,-5710.926,-5706.6704,-5703.9907,-5705.4175,-5708.729,-5713.422,-5717.21,-5704.786,-5702.214,-5728.8687,-5744.5176,-5753.627,-5773.479,-5770.6636,-5740.903,-5719.4033,-5704.1763,-5670.197,-5641.225,-5642.6504,-5663.031,-5671.4014,-5673.3276,-5704.911,-5717.0093,-5695.9,-5701.5317,-5715.9,-5705.9087,-5700.879,-5732.2344,-5753.895,-5754.982,-5780.921,-5787.5063,-5758.967,-5730.766,-5698.069,-5685.843,-5691.427,-5683.9805,-5700.9844,-5729.396,-5718.344,-5704.251,-5707.9775,-5698.5635,-5691.692,-5713.1943,-5721.964,-5712.188,-5700.245,-5674.1973,-5666.814,-5659.676,-5655.0947,-5674.134,-5676.658,-5698.1733,-5717.5493,-5705.1626,-5708.039,-5709.9214,-5711.8555,-5725.0146,-5747.9814,-5758.857,-5738.1826,-5721.87,-5705.9033,-5696.085,-5696.388,-5691.1274,-5701.225,-5708.287,-5712.122,-5714.474,-5703.776,-5717.662,-5730.828,-5723.089,-5730.652,-5741.8286,-5745.542,-5746.4536,-5750.2495,-5750.1646,-5730.424,-5719.2715,-5709.8936,-5677.84,-5672.0396,-5701.9795,-5728.5493,-5757.5894,-5797.04,-5835.4688,-5845.665,-5820.456,-5799.351,-5768.636,-5710.8193,-5670.1196,-5652.59,-5652.217,-5664.589,-5673.3896,-5689.946,-5693.179,-5676.399,-5684.2114,-5693.7915,-5690.1274,-5712.204,-5741.4077,-5759.148,-5767.122,-5764.8516,-5755.5967,-5729.7744,-5732.2417,-5762.758,-5772.1465,-5785.2256,-5788.6724,-5768.3345,-5743.598,-5719.281,-5714.5186,-5703.8286,-5683.2017,-5672.8184,-5663.6816,-5666.8604,-5672.725,-5671.605,-5682.712,-5708.682,-5711.6274,-5694.157,-5701.762,-5720.768,-5738.777,-5741.2417,-5736.7715,-5759.9033,-5780.5913,-5792.3745,-5795.596,-5792.6274,-5802.8804,-5806.394,-5804.252,-5796.945,-5774.766,-5739.229,-5706.4937,-5692.4346,-5680.8247,-5684.499,-5698.98,-5698.418,-5695.698,-5697.8584,-5708.2065,-5714.2476,-5710.008,-5707.357,-5702.317,-5703.5396,-5717.6455,-5732.879,-5727.6035,-5717.7705,-5737.203,-5744.8105,-5733.1836,-5757.1567,-5786.5947,-5768.8735,-5748.7554,-5759.3804,-5755.2,-5746.7383,-5749.473,-5742.1846,-5751.862,-5756.9785,-5742.0806,-5736.7017,-5734.7227,-5747.11,-5758.1543,-5747.032,-5728.82,-5715.268,-5722.9897,-5734.039,-5730.5293,-5721.178,-5709.567,-5701.9395,-5705.883,-5720.629,-5723.264,-5725.132,-5747.7373,-5754.661,-5745.137,-5745.283,-5743.593,-5730.517,-5713.319,-5712.9307,-5712.451,-5700.1807,-5711.975,-5728.3594,-5727.0986,-5727.9443,-5739.456,-5753.2505,-5757.697,-5768.588,-5775.4683,-5771.89,-5778.276,-5770.9023,-5747.078,-5738.3843,-5745.9746,-5755.6235,-5772.045,-5785.47,-5783.6265,-5784.924,-5787.5063,-5773.965,-5734.42,-5709.9067,-5728.703,-5737.5615,-5740.24,-5756.099,-5762.932,-5766.3325,-5759.4277,-5752.232,-5760.115,-5751.8687,-5732.9346,-5722.4253,-5716.948,-5738.8545,-5755.6826,-5739.9746,-5737.161,-5735.082,-5728.9253,-5726.4907,-5716.6396,-5723.399,-5735.4326,-5759.7783,-5789.7295,-5791.712,-5785.5894,-5769.4297,-5766.4727,-5772.326,-5749.3477,-5740.594,-5741.598,-5737.245,-5752.19,-5762.048,-5750.9424,-5729.508,-5724.916,-5741.0474,-5748.3403,-5761.7466,-5791.329,-5822.1978,-5853.206,-5871.38,-5870.2,-5872.76,-5882.961,-5856.8438,-5790.4194,-5739.922,-5722.323,-5711.0527,-5694.2886,-5688.6963,-5700.775,-5713.8477,-5726.254,-5739.9995,-5750.467,-5755.2886,-5755.7764,-5777.3813,-5805.4863,-5788.0195,-5760.3237,-5754.2754,-5739.195,-5742.562,-5762.0034,-5753.556,-5743.9155,-5747.3374,-5759.6035,-5777.044,-5788.4077,-5807.696,-5824.342,-5819.5894,-5800.182,-5796.6196,-5806.25,-5798.902,-5794.7017,-5782.715,-5778.6626,-5803.1533,-5806.9927,-5818.2744,-5833.545,-5820.217,-5808.776,-5799.575,-5797.4365,-5782.473,-5758.7607,-5752.706,-5743.586,-5743.2017,-5746.7324,-5745.2563,-5739.4473,-5730.9497,-5733.045,-5725.295,-5721.0454,-5724.197,-5724.878,-5746.6855,-5779.3784,-5808.107,-5818.1313,-5814.2524,-5821.0605,-5832.017,-5858.626,-5890.0596,-5889.798,-5879.099,-5866.506,-5840.42,-5824.597,-5834.561,-5846.4907,-5822.2524,-5780.1953,-5742.895,-5714.295,-5718.204,-5711.7065,-5703.6675,-5742.4897,-5769.0137,-5775.1206,-5790.454,-5817.5195,-5842.7666,-5834.334,-5815.4946,-5788.3984,-5762.702,-5750.9883,-5727.8374,-5727.118,-5733.6147,-5734.622,-5758.6416,-5775.369,-5790.877,-5805.087,-5801.4883,-5788.6597
