0.0,-2034.5992,-8370.757,-13882.398,-15130.646,-16242.916,-15696.046,-14756.103,-16038.159,-15482.843,-15917.977,-16804.154,-16495.814,-17639.225,-17605.217,-17973.275,-18419.133,-18032.188,-18418.664,-17857.898,-17719.762,-17379.703,-16772.781,-16648.242,-16019.812
-15936.331,-15674.826,-15603.893,-15788.236,-15816.841,-16260.446,-16480.568,-16910.785,-17296.863,-17563.678,-17911.371,-17982.564,-18097.604,-17994.684,-17816.283,-17591.158,-17231.588,-16940.883,-16566.633,-16290.353,-16056.671,-15893.204,-15872.417,-15907.846,-16081.837
-16294.947,-16583.941,-16900.21,-17192.258,-17481.547,-17681.945,-17821.807,-17854.752,-17800.668,-17673.082,-17456.59,-17213.51,-16929.727,-16653.564,-16412.89,-16220.072,-16106.793,-16065.348,-16112.71,-16233.415,-16416.84,-16643.441,-16888.041,-17140.113,-17361.143
-17531.824,-17636.082,-17668.775,-17631.277,-17524.156,-17365.521,-17164.45,-16941.236,-16718.463,-16520.941,-16371.796,-16277.712,-16252.497,-16289.415,-16377.5625,-16520.799,-16695.902,-16883.902,-17078.426,-17249.947,-17381.164,-17466.967,-17494.33,-17464.56,-17384.14
-17259.717,-17106.973,-16942.375,-16777.338,-16625.24,-16505.438,-16430.08,-16400.152,-16420.57,-16492.479,-16602.229,-16734.645,-16875.209,-17017.625,-17149.797,-17252.037,-17319.926,-17341.033,-17313.826,-17255.662,-17169.174,-17058.336,-16933.586,-16812.922,-16709.436
-16622.104,-16564.521,-16547.06,-16566.002,-16615.072,-16681.893,-16768.871,-16875.46,-16978.326,-17071.37,-17154.28,-17205.799,-17217.986,-17198.604,-17157.92,-17102.725,-17028.346,-16942.135,-16854.326,-16776.521,-16720.564,-16680.055,-16664.58,-16677.41,-16705.389
-16751.87,-16813.031,-16884.682,-16954.76,-17009.252,-17058.47,-17092.105,-17100.598,-17101.143,-17084.219,-17040.92,-16985.889,-16922.947,-16867.652,-16828.016,-16793.137,-16769.906,-16759.828,-16767.654,-16789.771,-16810.088,-16842.973,-16884.137,-16919.18,-16958.95
-16997.47,-17021.6,-17026.414,-17018.594,-17007.639,-16987.387,-16960.164,-16931.59,-16899.852,-16870.68,-16849.943,-16837.91,-16833.018,-16835.74,-16846.475,-16858.602,-16865.158,-16874.637,-16895.623,-16918.521,-16935.203,-16944.893,-16948.926,-16947.855,-16944.453
-16947.17,-16948.736,-16939.232,-16928.55,-16920.355,-16909.893,-16899.34,-16892.82,-16893.438,-16894.916,-16895.293,-16893.057,-16883.62,-16881.285,-16887.375,-16897.8,-16907.996,-16907.201,-16908.09,-16909.799,-16912.57,-16923.951,-16929.342,-16934.502,-16943.479
-16941.094,-16936.102,-16939.105,-16936.312,-16925.008,-16912.908,-16897.71,-16888.736,-16886.637,-16875.965,-16864.977,-16862.408,-16859.658,-16860.717,-16868.744,-16884.469,-16912.512,-16930.346,-16936.592,-16952.025,-16962.316,-16968.082,-16970.36,-16962.857,-16962.795
-16956.84,-16933.254,-16909.244,-16886.285,-16862.969,-16849.066,-16843.396,-16838.623,-16843.412,-16854.932,-16869.83,-16900.96,-16933.955,-16957.338,-16977.908,-16991.154,-17003.053,-17010.547,-17002.643,-16989.082,-16971.432,-16946.652,-16914.445,-16879.016,-16851.463
-16832.824,-16824.361,-16822.918,-16826.17,-16839.184,-16861.781,-16892.678,-16927.566,-16961.736,-16983.746,-16994.582,-17004.213,-17002.389,-16994.527,-16983.516,-16962.738,-16938.793,-16907.47,-16874.535,-16844.879,-16821.418,-16809.55,-16802.033,-16809.1,-16824.996
-16844.553,-16880.594,-16916.658,-16945.691,-16968.922,-16990.27,-17013.57,-17017.61,-17009.13,-16997.467,-16969.666,-16938.41,-16907.283,-16872.027,-16845.543,-16822.477,-16804.209,-16801.832,-16804.094,-16818.066,-16851.883,-16888.469,-16923.072,-16954.012,-16983.137
-17012.258,-17023.734,-17016.92,-17010.256,-17000.107,-16975.092,-16943.293,-16912.566,-16881.514,-16853.393,-16827.85,-16807.107,-16803.129,-16808.414,-16820.334,-16846.412,-16871.545,-16898.773,-16934.188,-16964.352,-16985.527,-16995.328,-16999.398,-17000.82,-16989.828
-16966.594,-16938.143,-16908.184,-16880.791,-16853.389,-16826.955,-16817.27,-16816.924,-16820.912,-16837.48,-16857.406,-16889.674,-16924.943,-16950.434,-16979.658,-17002.016,-17020.434,-17029.959,-17021.895,-17012.729,-16991.533,-16958.398,-16927.643,-16898.158,-16867.477
-16842.96,-16835.633,-16831.006,-16833.418,-16854.379,-16876.352,-16901.979,-16928.93,-16950.436,-16973.156,-16989.275,-17001.408,-17007.604,-17003.457,-16992.223,-16969.299,-16945.672,-16920.959,-16896.895,-16880.121,-16860.656,-16853.361,-16857.348,-16855.096,-16858.666
-16877.498,-16903.516,-16921.428,-16932.084,-16949.18,-16969.559,-16982.367,-16983.066,-16974.717,-16962.69,-16945.74,-16921.457,-16896.006,-16874.824,-16850.697,-16833.227,-16839.168,-16842.033,-16833.39,-16838.533,-16848.197,-16863.283,-16887.787,-16905.617,-16926.791
-16951.1,-16965.195,-16964.533,-16955.967,-16950.955,-16938.39,-16919.557,-16899.229,-16875.219,-16855.055,-16835.646,-16822.709,-16823.816,-16830.617,-16837.693,-16852.7,-16872.719,-16885.0,-16901.629,-16927.1,-16947.504,-16954.535,-16953.816,-16954.34,-16947.352
-16934.021,-16916.414,-16896.082,-16882.21,-16872.824,-16875.252,-16878.04,-16861.693,-16845.49,-16847.932,-16864.062,-16878.445,-16888.662,-16905.164,-16921.082,-16932.81,-16944.918,-16949.762,-16950.643,-16947.148,-16930.164,-16911.23,-16898.398,-16887.473,-16877.3
-16869.66,-16866.072,-16865.521,-16868.262,-16887.041,-16925.697,-16955.684,-16977.605,-17005.82,-17010.47,-16992.598,-16990.213,-16999.404,-17001.646,-17005.781,-17003.336,-16984.75,-16968.873,-16954.436,-16935.758,-16908.658,-16876.098,-16858.988,-16851.602,-16852.152
-16855.998,-16858.234,-16877.768,-16894.652,-16904.822,-16930.117,-16953.943,-16974.7,-16999.502,-17002.979,-16985.201,-16985.828,-16982.059,-16952.945,-16946.988,-16956.02,-16958.352,-16963.898,-16989.05,-17019.559,-16995.959,-16967.295,-16988.322,-17026.928,-17044.928
-17007.482,-16976.254,-16965.781,-16933.908,-16925.486,-16929.986,-16923.363,-16910.723,-16898.348,-16908.375,-16924.967,-16964.809,-17033.643,-17057.771,-17030.705,-17047.922,-17113.473,-17142.545,-17137.758,-17099.469,-17031.338,-16990.225,-16978.512,-17007.068,-17089.63
-17178.002,-17194.605,-17141.389,-17089.49,-17035.082,-16986.416,-16970.14,-16980.486,-17012.35,-17048.69,-17084.344,-17090.746,-17091.904,-17135.072,-17164.822,-17147.271,-17089.82,-16992.271,-16916.416,-16917.363,-16933.41,-16925.453,-16946.783,-16998.383,-17104.047
-17329.572,-17524.8,-17563.924,-17573.795,-17557.332,-17491.691,-17410.34,-17289.426,-17228.242,-17239.225,-17360.096,-17622.076,-17749.344,-17714.484,-17642.443,-17444.787,-17300.098,-17448.299,-17597.8,-17462.527,-17284.748,-17170.938,-17025.469,-16952.768,-16959.955
-17056.564,-17168.898,-17111.17,-17004.785,-16953.25,-16963.568,-17030.701,-17110.643,-17239.512,-17389.111,-17505.428,-17420.594,-17191.637,-17119.07,-17257.916,-17596.379,-17725.674,-17418.09,-17069.102,-16745.51,-16509.992,-16474.623,-16502.125,-16570.457,-16705.658
-16925.576,-17137.139,-17259.477,-17318.092,-17296.39,-17237.215,-17116.148,-16971.014,-16986.586,-17042.453,-16984.074,-16937.387,-16887.062,-16871.805,-16968.822,-17054.797,-17221.291,-17375.5,-17357.365,-17457.162,-17745.004,-17979.256,-17975.453,-17752.658,-17452.736
-17183.826,-17021.041,-16846.193,-16681.457,-16644.508,-16611.451,-16638.367,-16745.07,-16801.787,-16972.033,-17191.932,-17246.06,-17321.168,-17409.195,-17387.943,-17286.0,-16990.828,-16684.658,-16609.86,-16688.037,-16839.01,-16924.209,-17002.64,-17141.19,-17117.299
-17053.307,-17159.281,-17350.605,-17447.371,-17345.059,-17361.066,-17562.217,-17583.338,-17289.22,-16741.88,-16348.543,-16241.187,-16232.801,-16352.202,-16424.291,-16506.297,-16641.477,-16750.29,-16973.877,-17178.408,-17350.79,-17422.133,-17303.709,-17173.928,-17106.912
-17179.791,-17137.762,-16871.576,-16648.992,-16503.068,-16497.928,-16650.303,-16905.395,-17150.629,-17181.121,-17083.385,-17004.412,-16954.828,-16930.654,-16922.32,-17001.62,-17114.148,-17074.96,-16879.932,-16667.453,-16552.795,-16577.486,-16698.863,-16744.273,-16819.027
-17248.25,-17686.686,-17673.812,-17355.59,-16913.213,-16591.69,-16569.139,-16659.09,-16873.785,-17187.863,-17380.236,-17380.422,-17117.717,-16829.203,-16792.49,-17012.795,-17228.727,-16959.395,-16561.393,-16424.422,-16302.931,-16307.215,-16373.7705,-16424.041,-16545.436
-16628.514,-16747.732,-16852.555,-16913.816,-17013.016,-17111.037,-17284.338,-17443.48,-17230.521,-16716.44,-16382.277,-16237.932,-16305.688,-16604.162,-16705.164,-16675.602,-16655.61,-16592.27,-16580.574,-16561.996,-16543.752,-16509.85,-16472.69,-16484.59,-16501.832
-16602.574,-16760.465,-16761.664,-16635.914,-16711.578,-16989.77,-17281.953,-17538.756,-17543.941,-17361.74,-17193.486,-17036.861,-17093.746,-17179.525,-17089.982,-17159.723,-17208.475,-16985.9,-16622.457,-16285.274,-16196.012,-16146.925,-16099.19,-16260.9795,-16544.865
-16831.326,-16864.49,-16757.518,-16778.385,-16767.51,-16669.654,-16602.4,-16580.85,-16527.04,-16499.338,-16499.652,-16462.016,-16440.59,-16432.15,-16457.764,-16468.088,-16459.84,-16481.299,-16516.385,-16591.967,-16566.05,-16462.344,-16469.455,-16578.137,-16823.096
-17148.074,-17289.805,-17161.111,-16914.162,-16695.016,-16682.768,-16947.033,-17259.85,-17390.613,-17391.494,-17322.027,-17032.482,-16714.611,-16469.053,-16185.177,-16131.451,-16247.201,-16456.838,-16604.043,-16418.156,-16331.698,-16436.752,-16655.873,-17006.066,-17335.219
-17538.018,-17161.791,-16585.967,-16306.39,-16193.311,-16389.81,-16415.63,-16279.361,-16306.662,-16230.393,-16282.115,-16312.422,-16250.543,-16293.579,-16287.821,-16420.805,-16628.926,-16709.44,-16690.06,-16679.744,-16735.65,-16705.469,-16563.668,-16371.696,-16242.462
-16160.862,-16187.493,-16325.704,-16406.668,-16548.855,-16638.04,-16763.904,-17073.83,-17221.23,-17218.855,-17224.406,-17185.57,-16924.586,-16515.75,-16208.054,-16046.92,-16185.289,-16426.969,-16584.299,-16680.973,-16514.44,-16343.177,-16299.693,-16259.181,-16340.338
-16383.89,-16442.965,-16669.018,-16825.59,-16797.094,-16742.443,-16665.389,-16448.938,-16412.6,-16550.514,-16635.006,-16746.463,-16588.713,-16341.363,-16340.071,-16385.219,-16533.473,-16647.764,-16615.992,-16536.709,-16393.988,-16304.128,-16194.846,-16134.975,-16237.505
-16315.492,-16352.992,-16331.529,-16335.852,-16421.037,-16423.883,-16380.725,-16357.947,-16446.898,-16610.607,-16771.209,-17085.67,-17188.904,-16774.36,-16408.3,-16291.502,-16194.875,-16170.069,-16134.298,-16082.555,-16094.137,-16080.388,-16069.6875,-16086.348,-16154.34
-16255.287,-16359.849,-16513.363,-16663.465,-16773.078,-16855.236,-16928.055,-16828.02,-16580.74,-16466.201,-16404.846,-16440.68,-16590.266,-16621.041,-16630.205,-16752.764,-16781.887,-16494.176,-16290.984,-16297.872,-16155.718,-16213.955,-16536.902,-16792.64,-16940.645
-16884.172,-16778.533,-16694.883,-16642.578,-16688.645,-16640.773,-16506.139,-16305.737,-16127.181,-16084.579,-16028.0625,-16071.427,-16218.309,-16237.64,-16191.585,-16261.257,-16361.038,-16292.822,-16243.392,-16292.945,-16325.474,-16421.363,-16488.924,-16448.291,-16413.23
-16476.158,-16565.383,-16473.092,-16324.845,-16352.352,-16367.119,-16302.594,-16329.659,-16348.561,-16305.404,-16278.785,-16274.577,-16298.962,-16285.854,-16294.181,-16505.9,-16920.734,-17265.152,-17285.656,-17114.299,-16794.73,-16330.515,-16088.228,-16075.873,-16088.632
-16162.214,-16282.733,-16556.287,-17057.03,-17468.492,-17275.69,-16745.586,-16504.854,-16184.705,-15858.71,-15968.136,-16051.235,-16016.26,-16049.442,-16132.711,-16199.553,-16186.15,-16308.444,-16401.557,-16329.212,-16284.993,-16252.781,-16266.857,-16307.867,-16450.695
-16673.725,-16744.766,-16740.373,-16747.805,-16748.377,-16607.418,-16343.399,-16254.408,-16263.026,-16249.617,-16294.841,-16324.406,-16365.114,-16493.883,-16601.867,-16629.383,-16523.05,-16218.407,-16035.203,-16112.1875,-16148.369,-16135.447,-16083.698,-15997.596,-15969.515
-16000.1,-16203.82,-16507.438,-16680.887,-16613.344,-16504.662,-16472.139,-16487.232,-16733.629,-16956.623,-17055.48,-17010.51,-16592.135,-16386.3,-16642.209,-16744.92,-16484.934,-16241.755,-16182.39,-16172.72,-16239.717,-16312.456,-16356.184,-16404.643,-16437.004
-16368.167,-16191.788,-16191.001,-16237.215,-16176.309,-16239.401,-16453.277,-16646.139,-16602.195,-16403.348,-16221.854,-16112.7295,-16110.586,-16128.535,-16236.767,-16445.15,-16579.66,-16645.314,-16722.37,-16667.324,-16395.46,-16218.455,-16196.409,-16145.248,-16184.838
-16277.805,-16293.32,-16294.139,-16201.59,-16060.8545,-16162.496,-16483.469,-16606.646,-16369.599,-16107.964,-15966.877,-15920.099,-16047.42,-16210.818,-16399.457,-16757.049,-17085.637,-16977.473,-16515.668,-16207.186,-16108.117,-16172.182,-16280.549,-16269.52,-16255.007
-16127.07,-16108.651,-16249.137,-16254.356,-16327.648,-16477.691,-16718.959,-16889.082,-16701.424,-16353.141,-16137.572,-16327.478,-16679.088,-16924.082,-16979.107,-16686.121,-16309.7,-15989.581,-15878.467,-16106.99,-16503.225,-16835.709,-16669.967,-16260.233,-16101.867
-16013.174,-15964.796,-16005.872,-16061.578,-16110.05,-16137.976,-16355.352,-16754.172,-16916.352,-16908.092,-16951.102,-16717.201,-16324.296,-16119.783,-15922.281,-15784.517,-15788.337,-15828.631,-15940.655,-16083.135,-16192.675,-16182.966,-16131.5205,-16126.4795,-16087.134
-16082.016,-16074.716,-16061.319,-16069.161,-16061.644,-16134.295,-16218.402,-16271.286,-16289.2705,-16320.061,-16450.406,-16465.738,-16372.749,-16319.629,-16306.829,-16384.297,-16389.605,-16289.926,-16278.8,-16287.266,-16332.158,-16555.678,-16811.14,-16933.248,-16864.203
-16549.738,-16124.71,-15782.512,-15652.87,-15768.024,-15907.829,-15989.1045,-16102.373,-16248.6045,-16537.52,-16902.5,-17029.143,-16848.855,-16685.553,-16832.088,-17002.078,-16810.945,-16375.962,-16008.037,-16003.662,-16372.651,-16549.66,-16323.186,-16126.375,-16020.048
-15958.748,-15996.308,-16035.354,-16101.087,-16147.193,-16186.171,-16290.889,-16409.213,-16403.488,-16144.972,-15924.948,-15947.462,-16013.844,-16074.466,-16117.28,-16032.752,-15993.472,-16144.57,-16200.809,-16183.782,-16246.442,-16245.785,-16269.202,-16285.164,-16232.417
-16262.493,-16292.895,-16286.646,-16294.671,-16197.519,-15958.549,-15848.024,-15941.054,-15958.012,-15974.31,-16173.719,-16395.893,-16387.074,-16244.394,-16265.973,-16309.795,-16350.384,-16566.117,-16751.645,-16687.088,-16496.025,-16354.21,-16099.091,-15856.089,-15855.606
-15906.989,-16070.076,-16284.693,-16357.13,-16249.83,-15978.86,-15879.38,-15952.372,-16117.222,-16452.494,-16678.295,-16828.336,-16915.783,-16671.324,-16429.076,-16471.121,-16413.443,-16167.074,-15937.552,-15731.1455,-15727.852,-15811.449,-15760.458,-15875.952,-16136.507
-16297.534,-16318.716,-16259.514,-16324.117,-16450.48,-16454.293,-16338.962,-16300.272,-16402.088,-16298.822,-16081.278,-15954.935,-15808.303,-15808.486,-15820.419,-15784.541,-15893.523,-15984.254,-16140.06,-16441.668,-16782.506,-16971.39,-16899.861,-16754.34,-16501.69
-16306.569,-16186.939,-15952.853,-15861.186,-15886.328,-15978.412,-16062.401,-16054.185,-16162.212,-16222.467,-16186.355,-16117.983,-16044.467,-16096.894,-16148.746,-16132.708,-16030.42,-15981.181,-16025.666,-16063.715,-16302.717,-16722.344,-17082.021,-17025.488,-16534.518
-16103.195,-15917.923,-15883.22,-15798.107,-15731.67,-15821.903,-15899.925,-15991.874,-16163.907,-16387.734,-16488.611,-16311.772,-16074.737,-15940.872,-15879.66,-15861.376,-15879.244,-15925.51,-15991.83,-16034.95,-16042.398,-16084.429,-16111.459,-16114.901,-16135.471
-16172.065,-16269.956,-16464.105,-16860.678,-17253.96,-17230.271,-16823.746,-16335.954,-16064.384,-16035.637,-15958.944,-15777.164,-15756.681,-15897.291,-16055.187,-16378.097,-16749.506,-16807.787,-16465.168,-15988.102,-15765.988,-15736.499,-15783.375,-15907.22,-15931.011
-15912.261,-15948.676,-16051.27,-16189.314,-16216.944,-16207.4,-16225.818,-16157.928,-16085.266,-16156.751,-16270.878,-16325.043,-16343.999,-16306.317,-16197.439,-16016.509,-15905.465,-15979.923,-16087.93,-16230.984,-16405.873,-16401.133,-16182.083,-15917.985,-15822.44
-15951.204,-16224.1455,-16420.564,-16451.098,-16535.785,-16481.955,-16218.338,-16058.125,-15933.828,-15972.265,-16188.839,-16302.091,-16525.209,-17007.57,-17567.62,-17837.375,-17404.725,-16439.28,-15727.616,-15580.482,-15510.219,-15509.963,-15696.787,-15902.66,-16112.077
-16109.842,-16080.947,-16111.704,-16041.957,-16154.1045,-16267.033,-16171.196,-16018.088,-15947.327,-15988.433,-15977.309,-15953.511,-15883.811,-15815.965,-15917.49,-16088.237,-16274.045,-16415.768,-16456.982,-16410.566,-16297.187,-16202.418,-16210.815,-16192.889,-16084.943
-16107.313,-16202.233,-16350.186,-16474.826,-16257.793,-16012.84,-15962.976,-15920.604,-15934.969,-15985.771,-16052.577,-16071.35,-16017.769,-16071.451,-16148.813,-16158.806,-16153.443,-16121.222,-16102.929,-16078.443,-16037.038,-16007.104,-15981.071,-15976.679,-15989.265
-15996.807,-15947.517,-15895.156,-15956.767,-16077.174,-16162.278,-16211.285,-16287.123,-16440.361,-16653.373,-16849.291,-16908.975,-16706.584,-16407.408,-16270.446,-16084.763,-15900.065,-15921.261,-15852.895,-15742.576,-15717.819,-15724.859,-15846.768,-15973.945,-16094.621
-16180.987,-16194.909,-16241.107,-16260.83,-16315.237,-16384.895,-16406.178,-16507.498,-16517.035,-16305.795,-16096.906,-15969.202,-15873.569,-15872.317,-15930.333,-15931.532,-15927.039,-16013.965,-16207.491,-16400.1,-16373.181,-16160.84,-16045.594,-15992.711,-15938.951
-16037.556,-16146.249,-16130.11,-16056.227,-16011.555,-16102.2705,-16292.279,-16477.596,-16466.008,-16247.282,-16070.765,-15971.117,-15953.957,-16063.497,-16176.868,-16239.893,-16305.778,-16334.952,-16355.585,-16466.871,-16423.67,-16126.127,-15955.629,-15860.192,-15743.532
-15826.38,-15901.253,-15895.829,-15909.225,-15981.7,-16366.876,-16935.043,-17107.896,-16631.016,-16108.739,-15899.14,-15787.042,-15864.076,-15962.539,-16019.298,-16090.454,-16007.342,-15968.007,-15980.497,-15956.63,-15955.287,-15975.276,-16086.696,-16235.236,-16341.851
-16355.378,-16286.733,-16140.377,-15943.887,-15911.691,-16004.256,-16035.56,-16087.291,-16159.47,-16123.194,-16095.861,-16097.311,-16029.831,-15989.239,-15961.597,-15939.524,-15957.214,-15976.489,-15990.87,-15978.546,-15981.747,-15993.116,-16035.759,-16176.935,-16267.921
-16239.283,-16242.131,-16320.829,-16325.3125,-16170.139,-16015.303,-16002.162,-16068.186,-16210.331,-16384.496,-16482.037,-16607.936,-16859.926,-17231.95,-17317.389,-16796.816,-16213.58,-15798.52,-15564.275,-15752.508,-15914.031,-15879.982,-15925.808,-15905.497,-15922.0
-16004.492,-16066.391,-16238.382,-16231.528,-16100.785,-16131.081,-16110.549,-16016.987,-15859.139,-15700.679,-15701.983,-15782.385,-15884.051,-15941.332,-15999.368,-16125.738,-16193.823,-16251.274,-16395.969,-16418.348,-16217.787,-16070.411,-16071.227,-16141.853,-16321.8545
-16355.444,-16095.455,-15896.633,-15785.221,-15683.948,-15762.237,-15878.5205,-15980.806,-16131.803,-16193.285,-16208.143,-16231.511,-16260.195,-16289.601,-16235.24,-16160.603,-16081.599,-15986.322,-15977.739,-15983.719,-15981.784,-16007.188,-16000.256,-16007.348,-16017.02
-16012.583,-16018.494,-16013.714,-15983.276,-15978.8955,-16144.157,-16311.889,-16292.046,-16220.374,-16186.312,-16269.992,-16393.48,-16302.755,-16088.515,-16028.902,-16039.925,-16062.856,-16228.26,-16305.72,-16160.838,-16006.301,-15906.635,-15876.57,-16031.38,-16371.2295
-16650.854,-16712.258,-16635.668,-16384.664,-16247.708,-16753.262,-17285.418,-17058.926,-16423.049,-15818.649,-15546.37,-15607.654,-15734.397,-15901.085,-15953.316,-15951.61,-16018.891,-15999.918,-15904.021,-15813.952,-15815.7,-15874.22,-15933.268,-15956.388,-15918.677
-15954.505,-16015.064,-15991.601,-15948.2705,-15954.766,-15989.431,-16064.014,-16165.72,-16185.71,-16208.119,-16258.079,-16371.765,-16567.936,-16587.459,-16507.637,-16399.7,-16127.948,-15870.468,-15744.285,-15681.974,-15678.279,-15757.817,-15848.256,-15920.591,-15953.127
-15964.796,-16112.513,-16243.597,-16222.585,-16136.037,-16071.585,-16073.916,-16043.669,-16030.665,-15998.87,-15927.5625,-15963.602,-16022.773,-16049.17,-16137.145,-16328.26,-16418.809,-16243.361,-16031.421,-15973.758,-15958.844,-15978.432,-16052.764,-16011.461,-16003.656
-16108.032,-16162.853,-16173.856,-16102.64,-16102.6045,-16143.982,-16065.559,-15972.482,-15864.086,-15863.664,-15919.937,-15925.09,-16005.053,-16024.154,-15991.744,-16077.19,-16304.463,-16655.01,-16969.871,-17064.873,-16831.89,-16421.271,-16125.115,-15951.638,-15856.542
-15848.13,-15856.821,-15881.732,-15905.41,-15880.446,-15824.124,-15839.146,-16015.745,-16198.276,-16186.547,-16016.192,-15887.292,-15863.179,-15877.534,-15927.433,-15958.1045,-15997.553,-16031.039,-15996.152,-15999.803,-16034.053,-16074.019,-16050.474,-15948.821,-15963.499
-16084.746,-16249.529,-16332.105,-16205.805,-16069.013,-16040.755,-16049.91,-16023.073,-15970.776,-15971.258,-16009.311,-16056.941,-16067.274,-16007.141,-15961.367,-15967.527,-16010.73,-16118.805,-16195.615,-16174.116,-16234.951,-16356.287,-16291.711,-16114.305,-16022.714
-15931.617,-15841.913,-15883.669,-15978.174,-16090.73,-16122.204,-16038.794,-16064.922,-16159.589,-16173.967,-16085.884,-15966.917,-15910.876,-15932.193,-16013.288,-16021.451,-15991.8545,-16043.423,-16090.008,-16047.734,-15964.633,-15975.403,-16054.054,-16139.338,-16224.487
-16268.779,-16326.728,-16389.158,-16429.086,-16412.008,-16225.069,-15941.752,-15760.631,-15729.582,-15743.875,-15781.188,-15870.14,-15965.157,-16047.281,-16078.862,-16082.058,-16128.052,-16136.374,-16108.628,-16137.865,-16164.46,-16154.52,-16143.766,-16124.778,-16109.86
-16187.648,-16285.165,-16196.973,-16104.294,-16225.418,-16317.069,-16181.917,-16101.991,-16217.089,-16127.091,-15933.772,-15951.257,-15936.264,-15981.06,-16085.971,-16032.067,-16019.649,-15959.982,-15867.259,-15973.238,-16127.841,-16188.088,-16110.179,-16027.903,-15982.691
-15960.758,-16125.328,-16270.071,-16253.884,-16239.332,-16311.761,-16392.145,-16274.258,-16084.387,-15948.646,-15844.521,-15858.174,-15902.374,-15966.883,-16006.224,-15959.79,-16008.151,-16160.743,-16326.01,-16324.807,-16138.986,-16053.377,-16023.666,-15954.121,-15935.011
-15998.484,-16146.576,-16211.886,-16132.168,-16070.301,-16041.462,-16017.042,-16009.765,-16006.63,-16006.477,-16009.816,-16037.924,-16030.294,-15977.923,-15946.749,-15900.134,-15866.676,-15905.129,-16081.055,-16323.572,-16376.19,-16318.238,-16303.325,-16206.887,-16069.016
-16041.575,-16101.192,-16107.658,-16044.505,-16046.557,-16033.279,-15985.112,-16020.625,-16027.759,-16026.483,-16067.205,-16044.715,-15981.721,-15949.123,-15980.772,-16050.43,-16133.535,-16184.899,-16169.737,-16176.274,-16176.117,-16190.952,-16383.153,-16546.404,-16416.785
-16134.522,-15897.485,-15796.67,-15835.848,-15928.732,-15969.96,-15951.347,-15974.838,-16086.312,-16188.482,-16178.303,-16239.726,-16381.9,-16325.471,-16153.511,-16009.7,-15957.6875,-16010.412,-16064.662,-16106.771,-16073.604,-16057.949,-16120.514,-16123.812,-16113.37
-16080.425,-16007.346,-15982.245,-16006.645,-16060.547,-16101.272,-16147.0,-16199.998,-16105.732,-15953.583,-15933.547,-15959.54,-16040.523,-16156.98,-16206.403,-16194.917,-16125.237,-16113.92,-16109.13,-16065.455,-16134.158,-16197.677,-16146.072,-16073.114,-16039.913
-16047.693,-16105.831,-16066.779,-15906.504,-15922.771,-16039.215,-16127.565,-16196.175,-16280.454,-16484.598,-16476.623,-16298.155,-16194.028,-16116.597,-16287.283,-16468.994,-16359.12,-16167.442,-16044.001,-16036.552,-15990.833,-15834.172,-15757.771,-15810.283,-15949.806
-16213.8125,-16324.067,-16092.835,-15945.004,-15941.717,-15929.703,-15987.678,-16056.199,-16224.729,-16297.985,-16055.839,-15882.724,-15867.973,-15832.572,-15858.503,-15907.052,-15910.164,-15990.438,-16074.708,-16078.36,-16121.009,-16174.509,-16263.351,-16427.332,-16553.37
-16713.328,-16783.867,-16510.242,-16156.952,-15920.689,-15794.813,-15815.053,-15835.23,-15869.56,-15909.6,-15946.085,-16034.394,-16018.587,-15989.947,-16054.549,-16173.964,-16266.844,-16204.749,-16095.13,-15986.61,-15863.523,-15800.476,-15886.974,-16101.774,-16256.306
-16279.881,-16166.16,-16008.209,-16017.582,-16097.609,-16064.618,-15999.172,-15981.151,-16035.046,-16058.305,-15995.024,-15978.972,-15977.467,-15966.623,-15910.583,-15816.852,-15808.091,-15823.041,-15902.06,-16034.6,-16101.285,-16152.582,-16215.972,-16256.356,-16269.88
-16327.354,-16343.398,-16286.143,-16310.011,-16406.148,-16512.09,-16369.537,-16087.149,-16065.278,-16033.581,-16049.934,-16129.075,-15886.437,-15775.493,-15885.538,-15920.104,-16004.096,-16013.114,-16014.446,-16014.61,-15893.627,-15849.719,-15847.516,-15829.786,-15837.039
-15863.298,-15923.438,-15942.681,-15928.822,-15896.144,-15862.686,-15932.154,-15981.471,-15924.383,-15933.971,-15967.977,-15976.633,-16034.357,-16028.433,-15984.114,-15963.583,-15930.214,-15937.134,-15958.86,-16017.397,-16179.199,-16381.242,-16435.037,-16220.707,-15941.594
-15771.508,-15718.46,-15843.073,-16071.01,-16237.492,-16380.75,-16523.16,-16474.043,-16243.625,-16039.089,-15937.853,-15911.006,-15819.787,-15676.607,-15649.351,-15678.717,-15665.497,-15648.499,-15658.552,-15704.716,-15770.1875,-15809.811,-15822.402,-15847.351,-15908.46
-15992.574,-16072.583,-16145.529,-16225.132,-16273.654,-16266.724,-16301.926,-16274.595,-16019.648,-15850.01,-15965.305,-15999.151,-15780.388,-15685.268,-15842.833,-15932.534,-15911.059,-15868.405,-15834.775,-15891.905,-15902.048,-15839.518,-15852.683,-15880.42,-15871.507
-15888.484,-16005.861,-16195.68,-16294.101,-16329.536,-16426.148,-16375.838,-16090.871,-15880.339,-15800.409,-15742.897,-15695.07,-15636.901,-15672.231,-15766.13,-15828.71,-15882.068,-15890.238,-15894.674,-15865.967,-15805.226,-15801.79,-15795.784,-15873.883,-16058.411
-16130.43,-16088.552,-16020.983,-15942.302,-15895.75,-15886.543,-15904.226,-15944.212,-16027.922,-16182.561,-16294.56,-16217.0625,-16082.155,-16032.198,-15964.789,-15885.902,-15790.474,-15685.288,-15658.501,-15599.463,-15596.988,-15697.281,-15746.868,-15843.825,-15923.19
-15934.318,-16010.053,-16107.669,-16133.667,-16057.131,-16002.287,-15985.628,-15974.528,-16033.511,-16081.041,-16075.302,-16012.202,-15967.21,-15958.4795,-15876.235,-15811.368,-15825.967,-15889.648,-15949.576,-16057.052,-16241.084,-16300.177,-16276.358,-16184.955,-15963.759
-15848.821,-15831.714,-15800.147,-15817.287,-15849.032,-15932.019,-15960.093,-15880.981,-15984.648,-16165.537,-16289.146,-16384.514,-16249.5205,-16006.972,-15804.76,-15664.843,-15697.268,-15792.942,-15851.129,-15885.915,-15961.202,-16041.752,-16056.746,-16041.022,-15966.913
-15880.539,-15803.59,-15774.435,-15843.632,-15994.417,-16284.288,-16487.236,-16371.432,-16129.904,-15982.457,-15881.018,-15780.988,-15809.659,-15893.447,-15925.575,-15946.11,-15941.298,-15921.393,-15892.589,-15886.181,-15929.693,-16031.3955,-16150.189,-16151.933,-16137.562
-16257.348,-16314.192,-16071.45,-15760.418,-15713.173,-15806.6455,-15940.61,-16060.495,-16089.538,-16123.588,-16136.177,-16126.857,-16054.88,-15975.93,-16045.311,-16064.409,-15949.015,-15794.987,-15697.703,-15700.865,-15690.568,-15684.421,-15714.859,-15738.536,-15774.006
-15861.12,-15979.846,-16147.46,-16336.31,-16385.443,-16373.568,-16334.619,-16219.732,-16200.306,-16158.533,-16016.793,-16008.87,-16075.8545,-16044.159,-15820.534,-15552.769,-15525.175,-15587.032,-15669.615,-15813.446,-15889.359,-16010.982,-16264.404,-16525.252,-16470.91
-16140.642,-16003.804,-16009.441,-15996.071,-15961.004,-15881.433,-15835.802,-15797.749,-15786.235,-15780.214,-15821.97,-16072.176,-16399.637,-16717.646,-16923.648,-16742.969,-16350.399,-16067.6,-15852.084,-15750.597,-15856.957,-15985.956,-15971.3955,-15837.584,-15751.282
-15773.077,-15754.988,-15690.011,-15670.617,-15684.721,-15725.58,-15799.968,-15822.801,-15819.425,-15880.784,-15907.282,-15973.089,-16143.189,-16177.929,-16076.574,-16025.4795,-16052.156,-16139.462,-16306.739,-16403.164,-16298.823,-16239.275,-16210.165,-15973.942,-15739.242
-15656.084,-15674.407,-15775.769,-15800.944,-15760.716,-15765.031,-15753.334,-15742.879,-15728.351,-15727.152,-15833.242,-15942.844,-15940.915,-15894.918,-15869.229,-15812.893,-15803.516,-15883.195,-15927.604,-15996.588,-16052.151,-16076.14,-16203.604,-16386.672,-16549.674
-16503.764,-16193.602,-15880.834,-15686.265,-15552.791,-15506.282,-15599.461,-15718.399,-15833.219,-15875.717,-15790.901,-15813.511,-15878.11,-15881.86,-15962.947,-16037.7,-16042.545,-16004.431,-15935.847,-15852.951,-15825.144,-15971.6455,-16154.009,-16202.139,-16189.009
-16244.321,-16307.989,-16140.965,-15856.192,-15742.493,-15701.013,-15680.297,-15796.492,-15975.511,-16085.621,-16068.449,-16047.914,-15994.074,-15805.392,-15726.047,-15694.327,-15633.015,-15676.919,-15701.945,-15730.156,-15777.943,-15822.933,-15886.372,-15938.163,-16121.596
-16422.846,-16619.672,-16488.172,-16114.828,-15895.717,-15810.362,-15713.011,-15696.343,-15737.111,-15798.648,-15895.419,-16005.853,-16020.518,-15907.73,-15835.202,-15862.924,-15935.054,-15943.543,-15867.068,-15770.693,-15671.933,-15731.715,-15832.641,-15808.894,-15881.616
-16047.415,-16223.967,-16341.639,-16323.07,-16179.718,-15906.212,-15748.483,-15735.971,-15776.7705,-15846.006,-15772.176,-15771.088,-15822.854,-15791.901,-15883.949,-15954.858,-15973.135,-15976.36,-15905.186,-15853.573,-15817.372,-15842.617,-15867.688,-15862.628,-15882.872
-15856.457,-15827.53,-15805.388,-15811.638,-15832.493,-15818.767,-15828.202,-15813.763,-15802.664,-15835.244,-15871.643,-15922.204,-15990.61,-16091.918,-16218.759,-16293.765,-16217.904,-16089.293,-15959.702,-15831.507,-15868.009,-15925.269,-15929.9,-16012.83,-16113.154
-16098.773,-15944.263,-15936.698,-16022.554,-15963.777,-15800.93,-15617.6045,-15644.334,-15683.218,-15645.722,-15723.977,-15736.452,-15762.358,-15831.745,-15876.785,-15922.391,-15946.082,-16101.791,-16245.969,-16178.102,-16005.153,-15852.429,-15752.879,-15705.392,-15752.024
-15812.38,-15864.253,-15930.848,-15966.466,-15950.986,-15908.992,-15929.259,-15898.768,-15810.134,-15769.92,-15737.907,-15812.016,-15919.051,-15928.318,-15900.915,-15870.384,-15901.314,-15996.851,-16113.385,-16169.534,-16102.801,-16000.928,-15923.134,-15923.826,-16032.221
-16156.245,-16227.546,-16134.404,-15856.962,-15664.87,-15689.217,-15860.315,-16026.957,-16015.346,-15902.772,-15764.13,-15726.151,-15897.679,-16097.424,-16227.903,-16242.377,-16147.328,-16009.679,-15875.086,-15812.843,-15801.2295,-15855.104,-15935.314,-16000.664,-15986.283
-15873.419,-15876.774,-15869.37,-15759.144,-15707.914,-15690.431,-15817.291,-15964.914,-15924.671,-15916.656,-15997.192,-16082.427,-16182.502,-16152.815,-15921.775,-15739.407,-15720.847,-15731.791,-15797.089,-15966.334,-16176.887,-16296.831,-16252.1,-16150.014,-16036.772
-15975.83,-15933.085,-15774.389,-15699.694,-15750.959,-15803.915,-15895.485,-15918.247,-15908.013,-15944.383,-15989.133,-16018.195,-15953.873,-15931.499,-15997.5205,-16055.477,-16080.144,-16090.734,-16319.57,-16536.871,-16349.226,-16025.928,-15790.743,-15693.056,-15689.378
-15628.799,-15691.752,-15847.098,-15864.486,-15856.042,-15851.738,-15863.787,-15916.409,-15901.355,-15857.534,-15838.658,-15825.512,-15768.387,-15726.031,-15774.05,-15815.887,-15862.666,-15883.807,-15897.686,-16029.462,-16106.563,-16045.351,-15983.8545,-15992.14,-16038.02
-16082.489,-16151.212,-16100.34,-15937.692,-15866.268,-15848.498,-15887.714,-15918.6,-15803.587,-15774.422,-15961.7705,-16117.084,-16168.833,-16141.929,-15921.118,-15728.815,-15766.515,-15851.653,-15960.7705,-16006.199,-15922.423,-15895.46,-15933.228,-16076.263,-16355.662
-16516.062,-16328.41,-16018.213,-15861.18,-15699.593,-15593.532,-15597.526,-15598.414,-15693.899,-15779.846,-15840.93,-15938.446,-16020.056,-16022.848,-15900.915,-15854.759,-15827.404,-15774.423,-15814.37,-15805.185,-15756.688,-15707.825,-15717.654,-15812.476,-15893.198
-15949.859,-15958.711,-16012.2295,-16136.987,-16301.06,-16364.577,-16184.766,-16044.345,-15969.751,-15844.767,-15802.525,-15800.37,-15776.355,-15748.746,-15765.765,-15803.146,-15868.984,-16041.142,-16146.633,-16114.139,-16043.986,-15932.814,-15859.75,-15894.249,-15949.241
-15981.414,-16024.571,-16003.956,-15964.251,-16029.2,-16026.249,-15970.345,-15995.107,-15883.033,-15745.226,-15799.315,-15770.869,-15683.134,-15718.221,-15723.063,-15786.548,-15937.498,-15967.937,-15967.9795,-16029.053,-16124.402,-16142.5,-16000.915,-15892.307,-15819.691
-15774.625,-15859.209,-15888.223,-15841.043,-15821.028,-15779.734,-15761.479,-15778.988,-15803.819,-15874.641,-15958.883,-16042.525,-16171.408,-16298.26,-16311.488,-16132.437,-15949.057,-15919.973,-15855.889,-15784.632,-15780.538,-15769.003,-15833.769,-15885.871,-15839.376
-15836.977,-15895.958,-15900.189,-15809.001,-15717.075,-15678.579,-15683.377,-15731.422,-15800.976,-15945.449,-16157.409,-16217.558,-16057.769,-15893.964,-15826.634,-15804.602,-15813.606,-15834.02,-15885.693,-15970.312,-16041.585,-16066.992,-15999.464,-15905.516,-15844.481
-15808.673,-15817.3125,-15830.823,-15876.934,-15960.7705,-16038.192,-16036.727,-15902.536,-15811.198,-15774.255,-15768.362,-15863.5205,-15939.154,-15966.691,-15935.788,-15958.276,-16138.705,-16289.244,-16315.211,-16178.46,-15904.427,-15652.942,-15566.177,-15556.865,-15549.614
-15686.168,-15822.074,-15886.093,-15933.484,-15939.669,-16062.218,-16206.897,-16178.254,-16048.19,-15971.079,-15886.918,-15769.955,-15755.287,-15727.818,-15784.4,-15869.96,-15791.938,-15849.184,-15968.031,-16008.659,-15980.096,-15826.586,-15778.299,-15771.991,-15754.554
-15810.356,-15807.815,-15814.615,-15844.126,-15850.521,-15889.351,-15930.813,-15926.746,-15856.641,-15789.209,-15738.278,-15695.221,-15715.229,-15761.202,-15826.461,-15930.464,-15994.379,-15949.989,-15896.729,-15942.327,-15991.663,-16080.55,-16261.02,-16254.46,-16046.169
-15945.893,-15997.369,-16102.419,-16143.627,-16010.515,-15799.147,-15671.245,-15661.765,-15693.606,-15733.914,-15792.68,-15803.529,-15757.883,-15729.039,-15754.416,-15784.717,-15806.517,-15950.591,-16162.848,-16174.891,-15982.402,-15798.976,-15686.884,-15646.144,-15681.763
-15733.775,-15795.72,-15853.754,-15882.683,-15908.227,-15942.799,-16001.248,-16037.938,-16000.149,-15898.904,-15804.156,-15822.254,-15871.562,-15822.457,-15774.615,-15791.986,-15788.325,-15794.061,-15836.283,-15833.593,-15820.841,-15829.382,-15853.832,-15889.223,-15878.765
-15899.78,-15969.864,-15965.064,-15902.73,-15836.755,-15760.51,-15724.026,-15756.616,-15818.0,-15896.245,-15937.525,-15946.205,-15990.068,-15992.054,-15934.013,-15891.191,-15848.573,-15830.537,-15939.338,-16096.255,-16099.416,-15967.329,-15857.36,-15833.206,-15856.996
-15878.505,-15885.609,-15903.881,-15898.783,-15826.521,-15790.943,-15785.479,-15744.866,-15735.75,-15795.238,-15929.519,-16014.914,-15972.495,-15906.829,-15839.347,-15793.231,-15831.044,-15865.775,-15822.753,-15834.812,-15875.826,-15826.24,-15803.549,-15787.536,-15785.776
-15881.879,-15890.615,-15823.726,-15834.26,-15899.421,-16045.079,-16221.377,-16236.605,-16056.443,-15903.147,-15904.119,-15898.301,-15768.393,-15653.697,-15680.457,-15755.4795,-15891.899,-16047.765,-15992.325,-15858.607,-15813.327,-15793.011,-15789.706,-15782.296,-15794.355
-15780.125,-15733.683,-15747.696,-15746.93,-15764.536,-15839.916,-15929.095,-16105.573,-16254.402,-16249.218,-16206.413,-16199.823,-16109.448,-15904.975,-15815.628,-15846.275,-15867.335,-15853.291,-15781.695,-15784.258,-15809.176,-15822.193,-15920.496,-15994.8545,-16060.757
-15973.222,-15822.507,-16041.292,-16156.391,-15825.821,-15606.608,-15555.934,-15527.632,-15639.858,-15730.179,-15792.902,-15890.796,-15955.691,-16032.666,-16035.808,-16032.775,-16077.345,-16013.523,-15897.446,-15799.507,-15719.492,-15668.726,-15657.632,-15673.861,-15688.668
-15715.293,-15752.256,-15826.043,-15999.593,-16298.674,-16508.822,-16455.746,-16265.67,-15986.318,-15773.092,-15746.733,-15726.455,-15699.464,-15714.025,-15745.718,-15781.218,-15781.786,-15775.094,-15792.158,-15855.323,-15906.827,-15910.471,-15998.932,-16101.454,-15997.5205
-15833.381,-15873.349,-15996.208,-16025.87,-16006.171,-15945.81,-15843.102,-15785.477,-15806.202,-15880.292,-15951.914,-15896.108,-15758.618,-15704.385,-15730.361,-15787.51,-15861.616,-15936.8125,-15918.961,-15797.458,-15750.407,-15844.758,-16065.369,-16208.546,-16088.383
-15921.907,-15802.692,-15828.223,-16078.562,-16171.768,-16080.068,-16064.023,-16032.705,-15905.073,-15735.655,-15642.826,-15657.276,-15707.182,-15749.515,-15801.781,-15877.903,-15816.692,-15732.011,-15835.643,-15963.632,-16000.315,-15928.608,-15875.569,-15912.97,-15986.319
-16078.965,-16022.8125,-15974.67,-15971.474,-15838.29,-15819.69,-15842.228,-15793.193,-15787.1,-15796.202,-15861.321,-15916.03,-15957.9375,-15947.88,-15800.319,-15744.445,-15793.412,-15779.293,-15752.214,-15756.239,-15756.212,-15773.419,-15866.365,-15945.627,-15930.253
-15898.49,-15872.969,-15865.417,-15914.723,-15933.075,-15889.38,-15869.06,-15856.7295,-15910.8545,-16122.185,-16304.952,-16254.535,-16087.871,-15991.118,-15906.641,-15778.589,-15661.156,-15625.851,-15682.349,-15743.293,-15816.227,-15895.82,-15970.196,-15985.488,-15865.71
-15785.334,-15796.907,-15798.34,-15837.413,-15972.229,-16118.884,-16133.106,-16068.488,-16018.296,-15990.048,-15984.147,-15908.299,-15785.525,-15762.687,-15832.327,-15935.869,-16010.953,-15952.28,-15834.909,-15756.231,-15702.267,-15739.256,-15841.729,-15915.962,-15877.301
-15756.159,-15754.834,-15813.145,-15843.12,-15861.489,-15817.014,-15817.38,-15851.854,-15861.974,-15931.761,-16085.858,-16331.793,-16493.582,-16419.15,-16198.714,-15881.98,-15610.475,-15535.108,-15620.637,-15762.976,-15811.936,-15819.593,-15863.365,-15861.789,-15890.152
-16014.055,-16203.289,-16310.0205,-16151.124,-15926.5205,-15879.232,-15877.833,-15863.879,-15926.668,-15878.37,-15741.819,-15736.942,-15720.815,-15705.711,-15720.418,-15704.571,-15758.185,-15778.565,-15784.209,-15815.34,-15816.026,-15905.738,-16006.599,-16052.763,-16084.812
-16017.756,-15877.844,-15768.867,-15715.317,-15745.622,-15818.642,-15839.447,-15924.812,-16113.104,-16204.174,-16087.346,-15913.557,-15933.308,-16072.998,-16146.227,-16055.696,-15880.444,-15822.866,-15761.012,-15710.16,-15781.044,-15806.884,-15781.446,-15776.565,-15839.095
-15952.684,-16009.262,-16066.755,-16079.726,-15914.914,-15793.589,-15764.221,-15686.468,-15752.234,-15895.529,-15981.182,-16045.247,-15963.192,-15867.795,-15847.683,-15788.146,-15811.905,-15918.788,-15892.641,-15824.247,-15861.331,-15900.282,-15924.943,-15875.704,-15766.28
-15742.244,-15771.308,-15829.361,-15866.985,-15875.742,-15926.991,-15964.673,-15953.62,-15929.708,-15871.798,-15809.421,-15808.476,-15846.124,-15957.902,-16084.355,-16103.118,-16047.042,-16036.105,-16109.461,-16039.558,-15878.215,-15805.967,-15744.779,-15776.088,-15842.096
-15899.67,-15972.955,-15951.916,-15920.535,-15829.22,-15746.359,-15812.916,-15832.051,-15814.345,-15833.55,-15888.759,-15973.168,-15961.78,-15861.634,-15789.19,-15771.717,-15737.031,-15761.511,-15876.018,-15963.862,-16066.341,-16160.426,-16138.046,-15979.546,-15820.88
-15734.673,-15676.144,-15742.794,-15820.285,-15812.738,-15874.599,-15953.382,-15970.3545,-15925.013,-15837.103,-15813.928,-15882.262,-15961.352,-15967.659,-15902.008,-15818.728,-15757.639,-15756.191,-15792.205,-15845.108,-15898.147,-15891.567,-15884.588,-15907.448,-15914.155
-15954.034,-15975.994,-15956.1,-15978.541,-15944.88,-15841.683,-15793.446,-15737.073,-15685.925,-15701.466,-15730.353,-15806.617,-15903.59,-16040.474,-16164.169,-16053.02,-15868.235,-15795.234,-15767.844,-15791.914,-15836.327,-15868.381,-15906.594,-15935.62,-15924.074
-15884.728,-15862.889,-15854.714,-15857.723,-15945.6875,-16133.388,-16182.056,-15988.992,-15825.732,-15746.701,-15688.386,-15730.051,-15776.893,-15804.419,-15849.745,-15902.221,-15988.4,-15989.524,-15942.56,-15930.943,-15886.916,-15859.385,-15880.772,-15952.79,-16094.521
-16272.486,-16312.94,-16148.59,-15969.687,-15787.303,-15642.12,-15660.722,-15732.7,-15799.7,-15893.712,-15973.667,-15962.675,-15902.933,-15913.922,-15935.62,-15885.442,-15855.5,-15909.984,-15926.428,-15838.818,-15741.336,-15711.201,-15728.14,-15741.665,-15831.171
-15977.281,-16031.158,-16005.04,-15959.545,-15943.227,-15983.206,-16038.357,-16035.435,-15972.874,-15929.955,-15890.386,-15827.367,-15769.851,-15720.118,-15704.957,-15741.729,-15782.797,-15836.287,-15972.489,-16165.182,-16245.962,-16118.545,-15964.221,-15877.396,-15820.258
-15848.664,-15902.267,-15969.924,-16057.799,-16078.281,-15992.1045,-15865.404,-15882.589,-15920.335,-15847.759,-15819.912,-15834.282,-15870.893,-15914.468,-15906.706,-15855.315,-15820.427,-15822.939,-15811.035,-15850.067,-15914.44,-15920.748,-15909.355,-15887.247,-15862.3
-15821.404,-15798.482,-15798.66,-15773.103,-15801.651,-15929.837,-16067.21,-16041.134,-15928.189,-15910.822,-15865.32,-15818.284,-15841.481,-15859.725,-15963.718,-16132.119,-16191.742,-16101.439,-16057.9,-16120.833,-16028.532,-15824.183,-15705.201,-15648.336,-15656.503
-15717.13,-15782.447,-15834.824,-15868.228,-15935.694,-16073.724,-16185.409,-16181.884,-16131.576,-16037.089,-15940.162,-15992.304,-15961.805,-15772.955,-15733.318,-15718.396,-15685.6875,-15751.923,-15779.203,-15810.754,-15847.492,-15889.024,-15993.225,-16067.014,-16084.571
-16030.878,-16020.7295,-16140.615,-16240.215,-16208.42,-16041.363,-15855.704,-15759.105,-15734.962,-15736.1,-15787.579,-15887.033,-15998.502,-16114.064,-16126.082,-16085.237,-16044.968,-15911.436,-15800.787,-15754.133,-15735.836,-15737.379,-15724.597,-15794.803,-15875.589
-15928.094,-16038.864,-16051.566,-15981.834,-15962.7,-15956.025,-16005.088,-16043.751,-16002.328,-16032.289,-16052.334,-15935.494,-15852.692,-15886.115,-15967.608,-16023.083,-16030.588,-16002.002,-15891.8125,-15776.194,-15719.439,-15699.726,-15801.764,-15954.151,-15977.106
-15900.045,-15852.836,-15848.28,-15858.232,-15900.147,-15895.064,-15861.61,-15858.538,-15834.437,-15853.349,-15880.944,-15894.898,-15968.952,-15982.986,-15893.837,-15797.541,-15783.802,-15796.394,-15748.513,-15793.965,-15897.486,-15976.817,-16120.114,-16198.965,-16188.898
-16180.051,-16141.488,-16138.816,-16188.744,-16217.358,-16176.834,-15992.633,-15776.71,-15721.871,-15730.113,-15744.633,-15842.272,-15921.785,-15940.265,-15912.11,-15827.1455,-15791.819,-15798.861,-15821.552,-15904.661,-15951.465,-15925.604,-15872.096,-15804.476,-15752.805
-15720.33,-15736.376,-15793.161,-15828.639,-15899.399,-16021.417,-16066.704,-16086.835,-16189.607,-16230.536,-16165.981,-16128.981,-16081.748,-15962.225,-15863.261,-15829.407,-15809.908,-15806.98,-15862.594,-16008.005,-16124.997,-16027.22,-15833.625,-15704.647,-15645.549
-15673.292,-15721.48,-15762.683,-15797.906,-15838.953,-15924.404,-15999.914,-16051.496,-16069.469,-16101.237,-16130.34,-16054.829,-15969.011,-15863.901,-15779.082,-15850.979,-15976.511,-16060.262,-16037.092,-15965.543,-15958.479,-15981.784,-16018.484,-15964.083,-15843.901
-15811.253,-15790.48,-15801.248,-15902.616,-15952.45,-15922.082,-15866.015,-15795.273,-15755.431,-15753.912,-15775.347,-15836.657,-15885.391,-15879.383,-15905.892,-15946.431,-15942.551,-15946.985,-15969.744,-16059.518,-16189.023,-16216.298,-16129.183,-15996.353,-15879.244
-15808.435,-15806.796,-15838.039,-15857.708,-15892.021,-15884.824,-15861.607,-15885.89,-15921.641,-15972.436,-15947.335,-15896.994,-15979.518,-16156.606,-16306.294,-16251.188,-16081.231,-15930.606,-15801.578,-15826.767,-15926.692,-15971.093,-15941.62,-15864.111,-15819.1875
-15844.093,-15949.502,-15957.197,-15882.703,-15886.514,-15868.403,-15834.935,-15808.571,-15774.542,-15786.218,-15810.118,-15818.913,-15833.737,-15883.873,-15965.526,-16082.888,-16195.108,-16155.469,-16006.766,-15931.425,-15913.747,-15928.235,-16029.467,-16156.318,-16253.475
-16274.821,-16130.753,-15912.566,-15787.835,-15739.342,-15740.526,-15751.916,-15728.442,-15784.701,-15857.306,-15916.269,-16112.022,-16246.696,-16207.206,-16240.32,-16327.473,-16231.517,-15996.168,-15861.901,-15904.376,-16026.375,-16108.607,-16095.485,-15990.249,-15832.388
-15766.972,-15772.4795,-15706.031,-15689.2705,-15715.631,-15704.1455,-15732.304,-15770.296,-15840.084,-15900.823,-15882.141,-15857.883,-15866.971,-15940.53,-16005.892,-15980.54,-15916.861,-15861.752,-15860.545,-15933.263,-16005.818,-16045.294,-16096.119,-16170.892,-16268.732
-16231.728,-15998.134,-15853.798,-15830.668,-15797.337,-15768.663,-15680.384,-15646.276,-15694.651,-15680.42,-15719.091,-15768.631,-15822.803,-15966.084,-15993.522,-15920.982,-15869.321,-15823.713,-15794.89,-15826.377,-15935.861,-16014.861,-16019.825,-15940.47,-15851.722
-15856.311,-15904.592,-15972.912,-16023.538,-16145.375,-16262.436,-16149.776,-16010.735,-15878.859,-15721.947,-15698.844,-15677.156,-15691.282,-15744.331,-15716.598,-15791.667,-15953.051,-16109.445,-16179.812,-16079.819,-15989.708,-15943.14,-15947.229,-15948.37,-15831.34
-15806.765,-15850.873,-15892.367,-16060.601,-16163.141,-16128.202,-16059.753,-15905.104,-15775.708,-15775.782,-15791.011,-15789.362,-15789.384,-15743.007,-15722.919,-15793.0,-15913.374,-16067.249,-16093.035,-15947.314,-15854.244,-15821.2295,-15781.696,-15828.822,-15924.014
-15923.353,-15890.463,-15978.023,-16048.54,-15981.235,-15950.5625,-15917.619,-15812.54,-15795.477,-15781.666,-15748.173,-15781.508,-15805.315,-15884.2705,-15965.553,-15972.845,-16024.938,-16081.126,-16047.162,-15956.037,-15895.645,-15881.919,-15927.89,-16008.789,-16034.0625
-16054.411,-16070.319,-16036.74,-15997.911,-15996.387,-16044.949,-16103.908,-16114.806,-16006.469,-15863.7295,-15751.047,-15651.92,-15697.19,-15813.799,-15959.273,-16116.824,-16025.512,-15854.459,-15819.369,-15778.593,-15763.344,-15768.833,-15797.49,-15928.23,-16039.998
-16086.168,-16022.513,-15843.415,-15754.22,-15750.554,-15756.156,-15814.0205,-15891.701,-15987.078,-16115.33,-16199.55,-16202.539,-16220.498,-16151.716,-15924.701,-15843.386,-15875.885,-15884.34,-16036.734,-16267.244,-16368.653,-16230.656,-16011.093,-15869.767,-15763.982
-15751.702,-15738.781,-15690.709,-15715.137,-15749.354,-15772.902,-15788.238,-15804.227,-15815.966,-15817.87,-15868.036,-15936.916,-15949.289,-15929.772,-15937.171,-15928.58,-15926.614,-15942.334,-15954.78,-16053.844,-16122.975,-16052.6455,-15934.498,-15855.173,-15869.9
-15956.419,-16099.939,-16139.487,-16002.394,-15933.555,-15929.551,-15831.547,-15726.582,-15711.464,-15728.946,-15760.906,-15806.272,-15823.419,-15867.27,-15932.906,-15949.603,-15956.597,-16018.301,-16110.737,-16119.827,-16042.631,-16012.279,-16051.862,-16104.415,-16177.165
-16272.945,-16283.076,-16162.24,-15977.214,-15748.162,-15646.6455,-15725.026,-15774.473,-15789.091,-15804.819,-15850.7705,-15925.272,-15931.381,-15896.764,-15862.451,-15899.137,-16001.1875,-16039.352,-16011.911,-15994.523,-15966.585,-15860.626,-15767.335,-15746.247,-15765.941
-15851.687,-15964.091,-16045.013,-16084.384,-16158.675,-16263.552,-16272.713,-16198.854,-16031.716,-15814.079,-15723.031,-15734.929,-15773.714,-15833.739,-15845.363,-15820.03,-15812.317,-15781.993,-15768.132,-15804.439,-15824.359,-15844.362,-15859.311,-15861.784,-15877.14
-15876.966,-15883.771,-15888.974,-15891.681,-15925.977,-15944.616,-15923.979,-15886.929,-15876.781,-15892.536,-15907.07,-15980.288,-16172.371,-16422.678,-16565.744,-16521.562,-16331.03,-16118.342,-16001.508,-15906.28,-15805.324,-15760.677,-15731.93,-15715.286,-15754.698
-15830.305,-15878.664,-15903.403,-15949.498,-16054.59,-16139.329,-16009.3,-15790.285,-15706.584,-15700.755,-15752.438,-15813.03,-15840.279,-15923.421,-16010.595,-16158.921,-16353.675,-16358.057,-16214.734,-15958.032,-15756.907,-15746.861,-15694.746,-15707.042,-15748.433
-15737.025,-15848.1455,-15954.994,-16048.906,-16028.355,-15896.492,-15878.025,-15836.17,-15842.556,-15922.695,-15935.342,-15935.385,-15887.203,-15853.393,-15838.805,-15808.3955,-15828.746,-15832.886,-15844.1,-15879.148,-15892.269,-15902.384,-15921.421,-15944.81,-15885.998
-15803.636,-15807.916,-15854.696,-15953.272,-16052.969,-16036.945,-15963.239,-15977.873,-16030.04,-16039.002,-16084.641,-16131.705,-16128.187,-16046.886,-15860.813,-15727.69,-15698.434,-15726.112,-15779.738,-15788.193,-15815.688,-15843.5205,-15848.27,-15863.156,-15809.026
-15779.485,-15791.192,-15786.586,-15831.833,-15864.914,-15885.651,-15897.899,-15896.991,-15921.002,-15934.626,-16008.877,-16096.55,-16081.664,-16004.92,-15916.722,-15911.471,-15941.085,-15848.609,-15735.908,-15761.871,-15831.496,-15874.467,-16004.345,-16165.728,-16171.526
-16067.572,-15979.119,-15946.33,-15969.633,-15877.698,-15721.642,-15713.894,-15730.312,-15755.094,-15836.797,-15962.942,-16075.29,-15997.163,-15900.907,-15873.521,-15833.382,-15876.628,-15901.954,-15865.863,-15883.113,-15973.279,-16059.374,-16081.475,-16057.226,-15960.938
-15842.935,-15748.541,-15702.688,-15712.581,-15693.423,-15708.525,-15750.211,-15769.816,-15798.287,-15795.717,-15817.602,-15836.2705,-15810.979,-15813.432,-15868.779,-15978.967,-16078.608,-16129.325,-16095.992,-16068.375,-16115.787,-16052.036,-15936.98,-15868.634,-15799.693
-15802.232,-15811.501,-15785.331,-15772.185,-15751.286,-15752.584,-15760.046,-15749.474,-15745.276,-15748.699,-15758.418,-15749.809,-15745.962,-15803.971,-15908.636,-16012.791,-16132.797,-16274.396,-16282.033,-16138.879,-16104.713,-16199.901,-16148.71,-15928.743,-15793.419
-15758.884,-15713.894,-15701.205,-15718.505,-15788.206,-15879.318,-15955.172,-16142.583,-16251.8125,-16057.664,-15847.378,-15837.666,-15839.819,-15813.709,-15842.43,-15826.822,-15837.972,-15896.335,-15894.271,-15927.899,-16005.219,-16087.206,-16102.241,-15983.713,-15936.741
-15991.456,-16015.99,-16065.185,-16109.249,-16198.35,-16339.295,-16319.353,-16186.634,-16006.235,-15891.981,-15960.094,-15992.759,-15994.775,-16027.676,-16080.471,-16110.137,-15899.21,-15699.136,-15668.8,-15593.6045,-15588.246,-15613.802,-15601.096,-15624.341,-15615.195
-15634.549,-15675.912,-15712.315,-15770.627,-15808.696,-15863.037,-15911.754,-15970.935,-16078.955,-16155.813,-16155.771,-16106.961,-16063.864,-16062.331,-16103.846,-16061.261,-15969.903,-16040.239,-16240.491,-16407.766,-16222.594,-15807.329,-15695.793,-15675.641,-15618.181
-15721.959,-15782.088,-15856.651,-15976.195,-15956.78,-15887.249,-15836.033,-15798.166,-15759.123,-15759.346,-15796.279,-15813.588,-15887.311,-15973.559,-15959.706,-15862.101,-15779.695,-15759.087,-15773.165,-15836.086,-15955.92,-16127.395,-16275.766,-16401.895,-16503.342
-16405.457,-16160.378,-15919.905,-15745.59,-15657.881,-15602.739,-15618.41,-15638.968,-15625.646,-15672.822,-15710.461,-15732.985,-15773.383,-15827.466,-15928.757,-16019.622,-16062.535,-16099.199,-16152.273,-16081.539,-15890.747,-15808.144,-15786.272,-15774.392,-15794.613
-15777.75,-15785.305,-15838.485,-15925.542,-16053.392,-16144.477,-16114.58,-15982.7705,-15848.869,-15738.414,-15702.189,-15745.454,-15795.424,-15869.128,-15924.654,-15942.159,-15961.999,-15988.79,-16006.994,-15973.899,-15965.414,-15964.653,-15974.391,-16071.964,-15973.571
-15771.089,-15795.589,-15857.395,-15878.443,-15848.082,-15783.956,-15769.803,-15727.687,-15740.601,-15804.036,-15845.0,-15865.728,-15855.225,-15856.479,-15811.498,-15777.822,-15804.903,-15817.448,-15849.745,-15920.624,-16001.79,-15988.537,-15876.418,-15812.215,-15836.864
-15871.203,-15870.366,-15912.721,-15992.899,-16114.914,-16276.623,-16306.7705,-16204.905,-16012.744,-15749.017,-15600.372,-15612.958,-15695.84,-15804.875,-15908.649,-15965.172,-15936.471,-15925.384,-15975.682,-15939.316,-15861.734,-15830.103,-15765.274,-15708.572,-15719.138
-15747.623,-15760.891,-15812.014,-15944.294,-16020.937,-15954.861,-15859.877,-15823.138,-15854.043,-15923.213,-15966.211,-15960.355,-15915.067,-15823.025,-15742.125,-15751.144,-15797.089,-15802.426,-15799.031,-15821.044,-15840.128,-15920.599,-16143.883,-16312.002,-16211.207
-15968.74,-15768.262,-15659.292,-15645.158,-15672.57,-15719.59,-15787.231,-15841.388,-15867.954,-15857.753,-15846.812,-15861.171,-15863.168,-15832.216,-15807.23,-15879.66,-16055.166,-16243.975,-16299.671,-16128.837,-15943.052,-15892.5625,-15836.209,-15826.21,-15891.603
-15883.758,-15878.087,-15871.825,-15834.632,-15826.503,-15772.711,-15742.874,-15748.398,-15741.806,-15778.243,-15781.472,-15778.733,-15799.782,-15786.854,-15813.755,-15890.6455,-15911.109,-15935.279,-16092.862,-16191.8,-16115.999,-16062.015,-16052.53,-16030.33,-16003.522
-15955.7295,-15912.484,-15839.108,-15718.328,-15695.546,-15786.908,-15856.998,-15873.477,-15859.112,-15849.725,-15827.724,-15834.464,-15903.553,-15914.032,-15930.497,-15964.599,-15911.542,-15837.672,-15801.9,-15849.522,-15940.369,-16013.077,-16001.497,-15886.904,-15836.627
-15878.536,-15936.6,-15903.056,-15755.529,-15682.625,-15710.489,-15770.501,-15850.561,-15907.956,-15910.337,-15886.545,-15908.031,-15950.255,-16003.128,-16098.981,-16198.173,-16241.101,-16144.419,-15986.814,-15854.505,-15706.012,-15635.817,-15623.398,-15667.795,-15860.896
-16059.076,-16158.277,-16110.95,-16040.582,-16110.841,-16090.27,-15946.013,-15882.284,-15875.755,-15876.879,-15843.021,-15790.961,-15766.964,-15733.382,-15729.997,-15756.318,-15757.251,-15756.077,-15771.99,-15812.903,-15836.829,-15829.143,-15895.336,-16048.042,-16138.16
-16187.177,-16282.169,-16243.27,-16217.499,-16433.604,-16401.94,-16023.564,-15810.181,-15743.414,-15695.949,-15743.159,-15787.477,-15809.449,-15880.194,-16018.939,-16258.634,-16455.314,-16398.428,-16165.714,-15926.011,-15734.85,-15605.324,-15560.803,-15646.723,-15777.351
-15884.476,-16019.535,-16098.798,-16036.822,-15917.182,-15846.477,-15786.065,-15734.896,-15784.152,-15805.74,-15767.967,-15773.08,-15749.445,-15731.407,-15733.442,-15707.28,-15725.198,-15773.71,-15845.407,-15963.009,-16055.514,-16071.219,-16046.901,-16001.384,-15920.185
-15905.377,-15949.88,-15971.313,-15995.13,-15955.796,-15901.409,-15936.325,-16026.009,-16085.319,-16017.257,-15897.792,-15813.219,-15930.347,-16289.032,-16430.385,-16262.476,-16022.162,-15788.793,-15727.974,-15805.372,-15945.892,-16051.887,-15995.602,-15933.149,-15856.549
-15794.704,-15811.857,-15780.64,-15765.779,-15763.193,-15768.385,-15810.57,-15869.5205,-15948.314,-15933.078,-15961.661,-16029.839,-15925.055,-15866.681,-15917.394,-15932.759,-15946.851,-15936.876,-15907.802,-15899.928,-15933.725,-16029.712,-16080.214,-15981.223,-15860.008
-15873.564,-15910.677,-15881.539,-15870.241,-15875.363,-15864.597,-15851.151,-15869.348,-15904.297,-15941.727,-16040.859,-16135.549,-16183.545,-16282.546,-16354.998,-16252.34,-16075.813,-15927.239,-15780.988,-15782.909,-15991.83,-16085.771,-15905.901,-15748.032,-15683.124
-15597.604,-15629.273,-15699.911,-15738.816,-15817.824,-15858.661,-15886.323,-15877.123,-15841.974,-15840.524,-15815.598,-15808.387,-15852.573,-15928.856,-15982.532,-16012.8955,-16048.492,-16002.456,-15915.435,-15896.377,-15922.639,-15928.997,-15894.463,-15865.062,-15892.52
-15958.911,-16014.4,-16029.818,-15989.478,-15927.783,-15863.682,-15816.632,-15840.894,-15946.783,-16036.806,-15946.822,-15800.035,-15747.807,-15746.319,-15907.927,-16093.167,-16036.316,-15917.626,-15912.242,-15929.689,-15958.576,-16037.472,-16044.524,-16001.273,-15998.828
-15945.583,-15883.186,-15873.219,-15860.705,-15868.677,-15931.533,-16009.966,-16076.903,-16097.351,-16012.423,-15922.279,-15861.768,-15793.086,-15832.173,-15877.524,-15828.019,-15817.03,-15808.133,-15764.891,-15747.757,-15741.887,-15767.442,-15845.797,-15893.311,-15845.743
-15809.521,-15846.436,-15885.4,-15944.611,-16055.224,-16093.332,-15999.048,-15945.681,-15937.022,-15905.506,-15909.413,-15897.035,-15932.233,-15980.79,-15951.752,-15920.98,-15835.711,-15825.608,-15956.231,-16008.265,-15977.4795,-15966.113,-15956.238,-15928.786,-16080.773
-16337.472,-16386.209,-16366.029,-16222.43,-15968.895,-15953.049,-15929.55,-15841.605,-15887.734,-15914.562,-15903.739,-15796.415,-15687.014,-15691.369,-15664.193,-15677.274,-15690.001,-15647.159,-15669.499,-15733.319,-15794.575,-15827.041,-15888.975,-16003.316,-16115.925
-16189.646,-16167.966,-16132.967,-16085.494,-16003.973,-15967.022,-15888.873,-15795.578,-15778.297,-15779.196,-15808.882,-15875.891,-15931.185,-15926.815,-15878.973,-15900.215,-15927.019,-15872.501,-15883.897,-15922.6875,-15885.239,-15888.898,-15916.677,-15922.473,-15959.224
-15962.303,-15900.938,-15871.893,-15869.0205,-15822.669,-15791.271,-15782.324,-15754.053,-15772.6455,-15840.715,-15908.549,-15960.204,-15954.26,-15916.405,-15946.205,-16070.561,-16246.901,-16283.714,-16083.71,-16062.25,-16324.778,-16375.993,-16194.826,-16015.878,-15798.876
-15658.596,-15716.322,-15881.605,-16025.029,-16058.984,-16046.464,-15952.47,-15792.614,-15735.069,-15745.291,-15868.653,-16059.1045,-16104.428,-15974.223,-15784.315,-15708.887,-15729.255,-15784.841,-15806.823,-15809.322,-15854.195,-15830.317,-15844.855,-15890.78,-15896.33
-15946.069,-15946.3545,-15927.787,-15904.879,-15859.489,-15864.143,-15862.315,-15873.019,-15937.09,-15985.969,-15971.075,-15944.018,-16012.993,-16139.802,-16148.958,-16051.972,-16040.695,-16081.324,-16037.021,-16014.239,-16078.106,-16053.277,-15930.027,-15870.777,-15839.893
-15895.489,-16169.87,-16408.445,-16363.58,-16100.563,-15832.906,-15717.003,-15659.403,-15642.906,-15707.602,-15765.655,-15853.04,-15998.167,-16120.687,-16178.503,-16256.901,-16417.459,-16446.615,-16190.554,-15872.807,-15739.947,-15789.958,-15909.053,-15938.98,-15856.618
-15786.615,-15756.759,-15851.053,-16062.833,-16186.709,-16169.059,-16046.495,-15910.615,-15847.446,-15800.554,-15740.881,-15684.095,-15696.292,-15822.022,-15984.065,-16094.906,-16122.906,-16171.416,-16196.108,-16076.46,-16018.423,-16022.52,-15956.667,-15942.557,-15965.296
-15961.137,-15878.134,-15775.328,-15825.129,-15916.904,-15968.768,-16014.653,-15997.706,-15986.168,-16165.116,-16536.7,-16711.807,-16444.242,-16053.301,-15795.003,-15666.808,-15706.928,-15850.955,-16025.596,-16262.274,-16513.7,-16633.977,-16499.404,-16229.34,-16060.809
-16002.484,-15922.107,-15917.756,-16028.271,-15915.993,-15667.705,-15558.331,-15539.546,-15763.362,-16130.0625,-16298.056,-16198.015,-16009.498,-15975.813,-15936.515,-15830.619,-15830.097,-15868.919,-15976.963,-16214.442,-16493.066,-16618.373,-16518.842,-16479.705,-16551.957
-16507.365,-16288.534,-15938.033,-15745.874,-15814.718,-15892.698,-15964.181,-15980.953,-15996.109,-16165.428,-16464.043,-16970.502,-17485.592,-17618.838,-17126.633,-16115.793,-15276.429,-15026.036,-15260.064,-15675.35,-16015.234,-16396.404,-16582.451,-16467.184,-16517.225
-16458.205,-16065.274,-15748.174,-15596.658,-15663.546,-16057.415,-16550.252,-16745.045,-16686.234,-16504.697,-16133.462,-16045.392,-16464.795,-16770.072,-16530.758,-16088.818,-15994.693,-16257.698,-16544.547,-16719.773,-16844.314,-16714.96,-16391.547,-16235.126,-15984.121
-15685.142,-15657.463,-15792.666,-15949.649,-15814.861,-15553.5625,-15600.091,-15872.116,-16055.48,-15889.974,-15625.612,-15556.064,-15720.768,-16039.111,-16301.556,-16455.365,-16306.946,-16077.277,-16149.952,-16189.598,-16174.789,-16236.973,-16309.024,-16592.977,-16837.682
-16596.238,-16160.679,-15939.762,-15796.117,-15645.941,-15710.181,-16121.72,-16731.51,-17044.746,-16996.787,-16901.62,-16386.8,-15544.816,-15215.283,-15372.521,-15815.881,-16349.113,-16351.054,-15885.069,-15389.485,-15149.932,-15367.787,-15889.328,-16270.472,-16270.436
-16277.9795,-16403.982,-16356.492,-16248.4,-16360.566,-16712.611,-16785.498,-16430.96,-15932.205,-15311.093,-14956.317,-14960.862,-15086.121,-15263.322,-15308.019,-15375.69,-15427.369,-15407.149,-15454.103,-15483.799,-15729.94,-16070.147,-16169.347,-16237.879,-16367.842
-16436.877,-16549.885,-16670.678,-16417.17,-15915.29,-15578.144,-15775.076,-16307.401,-16250.352,-15802.779,-15454.315,-15157.324,-15101.309,-15128.711,-15163.207,-15216.259,-15274.403,-15509.728,-15908.122,-16263.6455,-16196.238,-15794.327,-15400.505,-15202.911,-15369.808
-15781.163,-16175.817,-16251.601,-16233.804,-16376.227,-16446.318,-16563.127,-16573.164,-16336.802,-16154.298,-15788.389,-15250.665,-15048.855,-15052.73,-14990.344,-14990.774,-15087.651,-15278.606,-15512.162,-15725.755,-15850.573,-15758.966,-15732.945,-15796.405,-15769.765
-15839.225,-15941.187,-15956.3545,-15888.173,-15990.101,-16293.288,-16296.775,-15986.886,-15592.79,-15307.672,-15254.679,-15381.105,-15750.009,-16208.144,-16380.412,-16028.539,-15558.235,-15434.076,-15508.086,-15678.1,-15755.037,-15691.528,-15693.408,-15766.874,-15775.506
-15483.765,-15231.246,-15474.197,-16019.766,-16272.273,-15877.905,-15525.509,-15562.254,-15751.839,-16250.964,-16715.07,-16643.658,-16061.2295,-15492.082,-15407.177,-15674.494,-15918.075,-15801.638,-15655.226,-15640.56,-15499.221,-15346.186,-15171.104,-15183.422,-15379.02
-15657.412,-16035.172,-16080.737,-15992.008,-15922.22,-15802.186,-15873.733,-15925.486,-15950.401,-16091.768,-16160.028,-16018.171,-15938.84,-16056.702,-15867.738,-15467.886,-15313.563,-15338.682,-15415.871,-15501.359,-15657.029,-15791.24,-15835.948,-15930.767,-15994.937
-15934.319,-15920.832,-16058.141,-16078.634,-16071.465,-16173.298,-15874.436,-15431.295,-15257.9375,-15148.005,-15248.379,-15347.749,-15381.196,-15554.777,-15664.566,-15832.376,-15931.085,-15930.487,-16096.7,-16149.719,-15955.224,-15667.467,-15437.694,-15327.027,-15382.373
-15571.9,-15698.517,-15830.211,-15901.46,-15795.795,-15801.612,-16030.074,-16311.126,-16529.55,-16717.814,-17058.98,-17394.818,-17005.68,-15868.0205,-15040.634,-14834.052,-14823.965,-15111.068,-15632.333,-16048.817,-16131.891,-15851.64,-15574.287,-15425.551,-15393.968
-15507.098,-15665.614,-15805.106,-15738.166,-15580.924,-15541.678,-15556.486,-15671.21,-15687.5,-15520.019,-15510.772,-15711.625,-16000.005,-16223.292,-16240.666,-16141.351,-15956.453,-15774.986,-15866.395,-16177.181,-16193.924,-15820.276,-15492.744,-15235.628,-15150.566
-15418.708,-15649.157,-15637.636,-15578.007,-15721.787,-15953.276,-15960.79,-15807.236,-15587.474,-15540.4795,-15827.162,-16246.34,-16525.459,-16415.24,-16068.0205,-15711.232,-15662.16,-16049.715,-16144.09,-15797.405,-15540.238,-15358.483,-15216.281,-15222.381,-15330.879
-15521.737,-15679.313,-15738.619,-15829.028,-15814.3545,-15696.627,-15815.272,-15981.161,-15884.927,-15755.6455,-15807.765,-16005.034,-16398.775,-16684.357,-16265.41,-15661.185,-15480.991,-15440.371,-15685.542,-15873.377,-15560.167,-15427.933,-15528.931,-15658.221,-15824.673
-15765.598,-15771.058,-15996.796,-16225.655,-16306.8125,-16183.268,-15927.381,-15503.159,-15223.094,-15153.096,-15055.09,-15133.472,-15302.402,-15433.325,-15644.306,-15987.61,-16384.56,-16517.818,-16388.867,-16228.329,-16446.297,-17261.408,-17700.504,-17123.57,-16078.104
-15139.8955,-14876.347,-15133.034,-15204.803,-15229.58,-15408.247,-15658.818,-15898.683,-15846.992,-15664.517,-15664.305,-15693.86,-15685.268,-15797.252,-15852.603,-15674.256,-15539.758,-15471.874,-15406.302,-15470.174,-15524.944,-15539.329,-15620.498,-15766.891,-15793.345
-15634.487,-15620.031,-15809.957,-16130.892,-16412.338,-16374.584,-16180.822,-16006.476,-15825.962,-15539.292,-15297.521,-15316.807,-15477.817,-15733.62,-15803.175,-15647.428,-15638.884,-15711.968,-15842.409,-15990.288,-16077.221,-16199.725,-16318.548,-16459.512,-16345.871
-15944.228,-15727.25,-15535.009,-15377.318,-15411.477,-15320.593,-15265.218,-15455.691,-15829.341,-16126.668,-15981.318,-15783.939,-15964.003,-16169.589,-16075.591,-15967.891,-16063.875,-16034.597,-15746.209,-15558.478,-15736.706,-15862.146,-15543.675,-15184.503,-15076.416
-15157.701,-15367.263,-15696.673,-16092.242,-16175.425,-15872.943,-15523.048,-15356.007,-15375.78,-15409.266,-15462.03,-15501.96,-15491.084,-15517.823,-15542.09,-15573.407,-15588.275,-15644.82,-15915.522,-16408.096,-16826.781,-16638.588,-16090.733,-16025.745,-16349.542
-16521.795,-16570.902,-16402.236,-15857.829,-15461.735,-15595.98,-15887.476,-15782.674,-15405.463,-15303.642,-15364.584,-15505.442,-15758.719,-15797.916,-15627.833,-15408.661,-15388.695,-15482.379,-15448.897,-15491.414,-15515.894,-15603.268,-15854.667,-16004.599,-16010.49
-15906.662,-15916.182,-15917.896,-15734.311,-15747.967,-15855.876,-15713.407,-15449.313,-15280.273,-15349.617,-15782.035,-16243.384,-16163.422,-15808.619,-15626.988,-15471.752,-15387.736,-15638.95,-16202.167,-16592.184,-16432.729,-16093.498,-15743.425,-15348.135,-15301.008
-15553.159,-15784.857,-15793.891,-15536.263,-15410.451,-15371.274,-15250.528,-15259.093,-15305.598,-15394.934,-15470.367,-15423.45,-15468.438,-15558.963,-15685.88,-15888.644,-16081.213,-16271.822,-16287.777,-16221.162,-16285.034,-16263.775,-16192.236,-16312.895,-16288.198
-15758.214,-15205.74,-15029.343,-15008.6875,-15263.847,-15707.492,-15750.772,-15570.835,-15504.523,-15443.593,-15487.683,-15645.53,-15869.317,-16047.582,-15873.821,-15521.601,-15371.5625,-15437.82,-15638.033,-15927.081,-16094.804,-15946.935,-15655.683,-15493.174,-15464.283
-15428.939,-15392.093,-15420.824,-15470.761,-15525.106,-15606.475,-15646.627,-15566.872,-15477.793,-15463.753,-15454.553,-15473.384,-15575.149,-15834.894,-16017.664,-15918.225,-16069.971,-16383.943,-16319.1,-16151.918,-15996.422,-15907.837,-15881.437,-15590.88,-15474.529
-15690.535,-15726.2705,-15723.322,-15762.916,-15636.946,-15463.063,-15312.064,-15257.036,-15327.104,-15370.273,-15503.528,-15845.631,-16229.824,-16400.314,-16248.193,-16048.46,-15829.858,-15636.184,-15849.731,-16053.28,-15837.984,-15593.943,-15492.365,-15507.1045,-15622.097
-15796.239,-16014.945,-15951.167,-15542.509,-15278.421,-15209.752,-15327.756,-15640.644,-15650.922,-15440.797,-15380.518,-15495.015,-15835.426,-16175.919,-16357.028,-16344.475,-15947.544,-15507.789,-15414.717,-15383.474,-15415.371,-15609.092,-15697.359,-15667.546,-15614.314
-15792.265,-16095.849,-15989.692,-15654.955,-15444.23,-15335.025,-15361.049,-15432.509,-15368.46,-15393.24,-15551.483,-15701.36,-15998.968,-16076.075,-15819.872,-15745.263,-15843.126,-15860.4375,-15871.724,-16101.748,-16179.632,-15834.31,-15513.548,-15377.025,-15337.671
-15386.346,-15513.1455,-15696.686,-15967.52,-16171.753,-16040.269,-15704.526,-15420.538,-15419.624,-15579.001,-15711.404,-15820.153,-15629.234,-15355.0205,-15262.535,-15258.146,-15396.911,-15530.878,-15696.703,-15880.844,-15956.829,-16030.477,-16104.88,-16304.618,-16366.877
