0.0,-9294.548,-27354.193,-20436.494,-6475.086,-21599.033,-19080.064,-11427.126,-22542.988,-15110.098,-17758.947,-21341.752,-15709.828,-22493.184,-18261.398,-19979.178,-21344.936,-17839.586,-21636.39,-17741.51,-19390.305,-18600.42,-16957.594,-18787.348,-16074.107
-17966.629,-16785.967,-17071.559,-18055.16,-17115.37,-18938.912,-18181.959,-19276.717,-19481.402,-19347.975,-20178.035,-19377.504,-19945.33,-19301.473,-19088.479,-18900.348,-18133.756,-18220.363,-17528.375,-17553.902,-17360.53,-17262.06,-17572.674,-17538.146,-18036.852
-18230.307,-18629.5,-18986.885,-19162.639,-19502.283,-19479.781,-19564.771,-19432.738,-19232.756,-19036.975,-18663.12,-18419.977,-18079.26,-17849.492,-17668.375,-17540.574,-17581.91,-17633.988,-17825.658,-18036.045,-18299.879,-18601.059,-18852.281,-19096.113,-19239.416
-19337.92,-19347.396,-19264.861,-19129.713,-18916.842,-18683.467,-18428.668,-18199.4,-17999.79,-17850.945,-17786.572,-17770.652,-17839.04,-17971.17,-18148.875,-18370.014,-18595.33,-18806.05,-18976.232,-19105.402,-19174.95,-19175.43,-19122.111,-19012.139,-18856.938
-18669.576,-18473.137,-18286.832,-18127.404,-18015.227,-17957.523,-17956.168,-18007.854,-18111.465,-18249.756,-18416.203,-18595.645,-18751.285,-18881.395,-18974.438,-19028.229,-19037.121,-18982.174,-18901.182,-18795.94,-18656.06,-18514.475,-18379.21,-18267.598,-18187.934
-18137.29,-18130.75,-18165.107,-18237.72,-18336.104,-18450.355,-18576.473,-18686.713,-18783.508,-18863.984,-18903.82,-18909.584,-18883.72,-18825.77,-18746.287,-18644.865,-18528.41,-18429.096,-18355.174,-18296.232,-18266.969,-18267.86,-18292.14,-18338.152,-18400.367
-18483.018,-18571.314,-18648.23,-18717.66,-18771.186,-18796.414,-18798.705,-18780.8,-18742.672,-18692.334,-18633.887,-18567.508,-18497.768,-18443.592,-18408.99,-18383.734,-18379.018,-18391.756,-18416.285,-18453.207,-18499.129,-18559.875,-18609.123,-18643.594,-18680.709
-18699.732,-18705.072,-18695.547,-18668.91,-18644.326,-18612.094,-18577.477,-18545.191,-18507.156,-18483.96,-18477.549,-18470.154,-18469.516,-18482.83,-18501.844,-18530.059,-18560.367,-18582.549,-18607.775,-18622.3,-18619.252,-18620.746,-18621.363,-18610.896,-18600.74
-18589.537,-18569.41,-18552.777,-18539.111,-18529.02,-18532.963,-18535.418,-18537.375,-18541.512,-18538.855,-18544.06,-18554.244,-18558.328,-18564.24,-18567.754,-18566.602,-18569.463,-18572.0,-18573.057,-18576.295,-18577.771,-18579.957,-18586.242,-18594.914,-18606.361
-18608.154,-18592.48,-18584.537,-18587.934,-18580.89,-18569.688,-18562.53,-18552.246,-18542.658,-18540.63,-18538.777,-18535.908,-18536.242,-18542.656,-18555.008,-18563.506,-18577.893,-18597.625,-18609.998,-18622.76,-18629.363,-18630.557,-18630.459,-18622.914,-18610.0
-18589.504,-18565.668,-18536.129,-18510.387,-18500.037,-18496.78,-18503.393,-18510.174,-18525.604,-18550.424,-18561.447,-18582.97,-18610.53,-18622.977,-18639.46,-18651.701,-18649.705,-18643.307,-18628.322,-18603.445,-18581.053,-18560.543,-18528.572,-18498.443,-18484.672
-18482.305,-18487.174,-18494.787,-18508.799,-18528.725,-18557.188,-18593.5,-18625.176,-18649.148,-18663.16,-18673.328,-18675.137,-18665.309,-18648.3,-18620.963,-18596.426,-18566.64,-18531.29,-18505.16,-18478.684,-18465.02,-18468.404,-18476.062,-18494.018,-18521.18
-18557.09,-18597.771,-18631.717,-18659.451,-18680.928,-18698.06,-18703.68,-18686.77,-18665.578,-18639.035,-18600.44,-18567.143,-18531.52,-18499.652,-18483.99,-18474.469,-18470.803,-18474.805,-18492.555,-18516.854,-18545.145,-18586.898,-18624.76,-18653.467,-18674.412
-18679.172,-18683.338,-18683.143,-18657.48,-18627.318,-18600.738,-18563.764,-18529.283,-18499.352,-18473.55,-18463.05,-18463.793,-18471.154,-18488.969,-18516.684,-18544.113,-18576.43,-18614.934,-18644.291,-18669.6,-18682.732,-18680.967,-18675.285,-18652.227,-18619.725
-18590.186,-18564.266,-18533.916,-18496.303,-18471.852,-18457.592,-18457.5,-18467.832,-18481.027,-18511.898,-18539.477,-18565.014,-18599.33,-18627.895,-18651.418,-18660.104,-18660.256,-18658.041,-18640.951,-18615.83,-18588.508,-18564.684,-18538.812,-18504.957,-18480.416
-18469.068,-18470.91,-18482.918,-18496.164,-18519.496,-18551.49,-18581.184,-18608.605,-18632.922,-18651.662,-18659.303,-18658.656,-18657.074,-18642.771,-18613.004,-18586.908,-18568.1,-18541.865,-18511.719,-18488.45,-18473.121,-18474.81,-18486.738,-18502.523,-18526.242
-18550.502,-18579.1,-18605.418,-18624.998,-18642.63,-18650.246,-18647.197,-18631.117,-18617.807,-18608.541,-18584.023,-18562.746,-18539.697,-18508.424,-18487.934,-18473.756,-18470.041,-18476.49,-18489.658,-18511.393,-18528.05,-18539.268,-18556.154,-18583.568,-18610.748
-18624.73,-18624.139,-18618.719,-18610.852,-18586.06,-18559.197,-18539.213,-18516.332,-18494.299,-18472.914,-18469.832,-18477.486,-18471.334,-18477.66,-18503.932,-18522.12,-18534.328,-18550.992,-18562.348,-18572.766,-18579.8,-18575.754,-18579.758,-18574.102,-18543.547
-18522.27,-18512.13,-18494.629,-18471.549,-18452.55,-18446.555,-18447.209,-18444.068,-18445.945,-18458.61,-18474.555,-18492.688,-18507.04,-18518.389,-18530.422,-18531.275,-18526.459,-18522.146,-18508.71,-18490.61,-18471.07,-18453.25,-18443.885,-18427.719,-18407.299
-18404.408,-18408.668,-18406.867,-18415.812,-18437.916,-18444.29,-18445.096,-18459.344,-18472.447,-18487.967,-18492.734,-18484.701,-18487.898,-18484.035,-18472.004,-18464.27,-18447.766,-18426.055,-18408.955,-18395.69,-18391.734,-18397.617,-18395.176,-18396.682,-18417.363
-18433.133,-18442.043,-18452.324,-18461.023,-18470.54,-18480.73,-18484.264,-18482.383,-18480.717,-18471.11,-18471.041,-18474.068,-18454.95,-18442.344,-18436.19,-18429.549,-18432.195,-18432.275,-18437.88,-18447.15,-18457.414,-18470.648,-18477.393,-18484.959,-18484.799
-18481.059,-18487.629,-18489.938,-18488.254,-18484.37,-18480.646,-18480.682,-18475.908,-18468.688,-18459.312,-18451.73,-18450.879,-18453.947,-18458.738,-18461.229,-18469.463,-18479.605,-18480.895,-18482.955,-18493.146,-18503.898,-18502.559,-18500.285,-18498.947,-18485.414
-18477.363,-18476.188,-18476.938,-18480.283,-18472.16,-18466.51,-18468.287,-18470.361,-18478.613,-18480.95,-18482.244,-18490.924,-18493.684,-18498.486,-18509.69,-18513.242,-18509.38,-18503.133,-18500.17,-18500.102,-18497.924,-18503.55,-18507.322,-18494.748,-18485.86
-18486.842,-18491.848,-18496.387,-18493.852,-18497.191,-18494.633,-18490.824,-18504.707,-18505.848,-18508.992,-18517.87,-18507.525,-18503.008,-18498.246,-18497.666,-18509.533,-18509.08,-18503.504,-18499.13,-18496.746,-18494.32,-18494.604,-18501.44,-18502.336,-18503.502
-18507.977,-18516.566,-18520.81,-18517.898,-18527.93,-18531.465,-18527.201,-18528.93,-18523.01,-18517.332,-18517.354,-18525.857,-18528.76,-18522.002,-18529.3,-18532.77,-18528.857,-18528.205,-18527.463,-18533.895,-18535.074,-18529.092,-18528.314,-18530.191,-18529.008
-18527.492,-18525.29,-18519.94,-18521.762,-18521.688,-18517.447,-18521.367,-18521.05,-18512.676,-18508.322,-18506.918,-18503.14,-18508.883,-18513.475,-18505.84,-18506.246,-18505.32,-18500.03,-18503.098,-18512.412,-18517.574,-18506.264,-18503.424,-18517.203,-18521.168
-18518.291,-18521.543,-18521.797,-18515.4,-18518.633,-18525.07,-18525.992,-18525.98,-18518.275,-18513.559,-18515.25,-18508.205,-18502.227,-18502.898,-18510.078,-18526.861,-18526.953,-18513.893,-18515.215,-18521.467,-18522.824,-18518.951,-18518.436,-18519.914,-18519.174
-18525.797,-18526.857,-18520.547,-18517.85,-18523.047,-18528.979,-18518.717,-18509.076,-18509.135,-18508.791,-18513.012,-18522.22,-18526.555,-18523.402,-18528.0,-18531.129,-18522.555,-18526.707,-18535.111,-18528.44,-18524.35,-18532.783,-18539.7,-18537.031,-18533.424
-18528.947,-18523.762,-18524.893,-18522.363,-18522.03,-18528.572,-18525.736,-18527.846,-18534.637,-18530.535,-18529.637,-18529.404,-18533.902,-18543.92,-18540.107,-18537.332,-18535.37,-18530.422,-18538.258,-18544.898,-18542.008,-18537.297,-18534.754,-18531.355,-18529.785
-18529.867,-18524.535,-18528.715,-18534.906,-18531.797,-18532.818,-18541.56,-18552.23,-18547.795,-18540.236,-18542.945,-18539.438,-18535.273,-18533.07,-18531.209,-18533.406,-18531.33,-18524.453,-18517.623,-18513.398,-18510.57,-18512.219,-18516.951,-18516.002,-18516.31
-18520.764,-18525.428,-18529.295,-18528.217,-18524.453,-18524.406,-18527.055,-18526.125,-18528.299,-18536.244,-18537.674,-18538.047,-18543.012,-18541.682,-18534.78,-18530.209,-18528.12,-18530.135,-18535.86,-18533.256,-18529.672,-18539.809,-18544.58,-18544.467,-18550.035
-18546.89,-18545.564,-18546.818,-18544.576,-18550.81,-18552.01,-18547.598,-18545.53,-18540.842,-18539.09,-18541.002,-18544.432,-18544.205,-18544.16,-18543.844,-18538.703,-18543.982,-18548.844,-18548.367,-18552.05,-18548.021,-18545.484,-18545.512,-18540.672,-18542.732
-18543.191,-18535.947,-18533.652,-18535.992,-18538.08,-18538.22,-18536.998,-18539.93,-18540.904,-18540.139,-18544.48,-18546.701,-18546.994,-18546.766,-18545.627,-18546.674,-18549.06,-18549.896,-18546.889,-18547.28,-18549.053,-18545.264,-18543.271,-18545.87,-18548.271
-18543.89,-18538.125,-18538.125,-18536.865,-18541.07,-18548.852,-18547.773,-18548.424,-18554.52,-18559.58,-18556.283,-18552.018,-18558.584,-18557.406,-18552.422,-18554.191,-18550.691,-18550.018,-18549.834,-18543.447,-18543.26,-18547.004,-18546.87,-18542.533,-18535.594
-18537.82,-18548.19,-18549.846,-18547.822,-18546.453,-18544.088,-18550.201,-18557.08,-18559.111,-18557.164,-18550.332,-18547.22,-18543.213,-18544.672,-18555.438,-18556.473,-18553.102,-18553.65,-18556.998,-18558.908,-18553.408,-18555.404,-18567.275,-18569.97,-18563.459
-18563.914,-18569.41,-18570.441,-18569.195,-18567.33,-18569.326,-18570.602,-18565.42,-18560.322,-18561.203,-18571.678,-18580.281,-18580.795,-18577.113,-18571.078,-18571.957,-18575.389,-18578.877,-18582.812,-18573.791,-18563.719,-18566.406,-18563.605,-18553.566,-18557.402
-18568.043,-18565.453,-18559.107,-18557.283,-18558.498,-18566.549,-18569.19,-18567.562,-18566.217,-18558.424,-18561.232,-18565.139,-18561.463,-18562.596,-18556.973,-18559.158,-18566.457,-18558.36,-18558.783,-18568.545,-18566.87,-18565.215,-18576.938,-18575.703,-18557.672
-18556.062,-18559.885,-18562.363,-18573.924,-18578.557,-18571.477,-18562.992,-18561.379,-18559.41,-18556.107,-18557.723,-18556.352,-18561.191,-18574.375,-18578.938,-18573.975,-18566.598,-18557.973,-18555.531,-18563.86,-18569.586,-18570.686,-18565.645,-18554.475,-18552.186
-18553.35,-18552.316,-18554.443,-18554.193,-18552.889,-18556.371,-18551.41,-18543.852,-18556.834,-18562.629,-18551.387,-18559.426,-18567.438,-18557.893,-18559.74,-18564.277,-18557.021,-18551.127,-18549.307,-18547.332,-18547.275,-18553.406,-18553.32,-18551.12,-18559.807
-18556.773,-18548.324,-18555.555,-18566.473,-18572.928,-18565.46,-18551.342,-18547.334,-18543.076,-18543.555,-18555.158,-18563.47,-18561.668,-18553.07,-18552.139,-18552.797,-18551.266,-18559.443,-18560.186,-18554.443,-18553.346,-18553.34,-18555.518,-18554.418,-18558.182
-18561.225,-18549.338,-18539.408,-18541.803,-18545.8,-18545.488,-18549.629,-18553.31,-18544.51,-18533.598,-18537.766,-18548.143,-18547.219,-18546.03,-18543.547,-18541.406,-18544.729,-18538.762,-18541.75,-18550.012,-18548.123,-18547.494,-18541.838,-18537.514,-18526.97
-18513.783,-18516.846,-18527.73,-18554.043,-18560.848,-18543.738,-18551.951,-18553.967,-18537.516,-18532.271,-18534.145,-18531.297,-18523.941,-18521.053,-18523.424,-18529.42,-18528.479,-18520.994,-18518.781,-18521.203,-18525.586,-18524.4,-18521.803,-18521.219,-18520.676
-18522.072,-18521.898,-18524.008,-18530.268,-18536.275,-18532.918,-18527.8,-18538.756,-18541.488,-18522.217,-18515.865,-18522.85,-18523.334,-18536.896,-18551.871,-18540.281,-18526.45,-18520.738,-18505.844,-18494.723,-18494.584,-18493.762,-18514.963,-18536.357,-18525.111
-18530.77,-18531.506,-18510.537,-18520.732,-18522.066,-18514.842,-18530.975,-18537.666,-18547.484,-18546.389,-18518.24,-18505.668,-18510.244,-18512.2,-18506.496,-18505.438,-18510.195,-18501.248,-18493.094,-18503.125,-18527.83,-18556.195,-18546.682,-18508.479,-18508.271
-18523.326,-18516.37,-18500.285,-18500.012,-18533.88,-18542.348,-18529.424,-18531.846,-18526.229,-18533.592,-18533.826,-18527.77,-18536.768,-18533.969,-18532.262,-18526.186,-18521.01,-18520.727,-18513.64,-18516.701,-18517.9,-18520.117,-18522.947,-18521.434,-18529.314
-18531.693,-18528.38,-18524.172,-18519.977,-18516.256,-18511.828,-18520.55,-18524.416,-18514.752,-18510.836,-18511.559,-18511.64,-18509.568,-18512.604,-18516.94,-18515.555,-18519.545,-18520.836,-18517.488,-18523.055,-18526.77,-18525.768,-18524.926,-18522.4,-18523.201
-18520.197,-18521.496,-18527.629,-18519.172,-18516.557,-18518.127,-18509.95,-18505.898,-18506.234,-18519.605,-18532.123,-18523.982,-18508.537,-18503.848,-18513.668,-18515.666,-18520.031,-18523.395,-18510.883,-18519.176,-18532.256,-18530.518,-18535.191,-18539.01,-18532.545
-18516.375,-18512.85,-18524.5,-18525.688,-18524.252,-18526.537,-18527.7,-18525.457,-18519.504,-18519.82,-18524.787,-18525.59,-18524.86,-18534.037,-18534.494,-18520.836,-18528.734,-18539.201,-18534.59,-18529.31,-18520.025,-18519.71,-18522.502,-18518.662,-18519.023
-18520.396,-18522.898,-18523.643,-18524.15,-18527.406,-18524.459,-18523.766,-18526.436,-18521.117,-18517.344,-18519.145,-18518.094,-18520.71,-18531.895,-18532.924,-18519.693,-18519.098,-18525.008,-18516.588,-18515.82,-18520.346,-18509.287,-18512.168,-18530.977,-18527.084
-18521.043,-18528.635,-18523.744,-18527.342,-18539.732,-18532.92,-18529.242,-18536.723,-18537.332,-18530.842,-18523.932,-18516.691,-18515.346,-18519.455,-18526.336,-18540.348,-18543.219,-18536.13,-18534.941,-18539.03,-18536.842,-18528.406,-18535.611,-18539.748,-18534.424
-18530.875,-18525.377,-18529.143,-18526.908,-18523.734,-18525.203,-18516.89,-18516.252,-18526.71,-18538.104,-18538.32,-18536.111,-18538.574,-18536.223,-18542.49,-18547.654,-18539.838,-18534.81,-18540.227,-18539.312,-18533.715,-18542.945,-18544.805,-18537.096,-18540.338
-18545.057,-18542.34,-18542.256,-18545.332,-18543.928,-18546.838,-18545.1,-18548.178,-18553.64,-18538.305,-18538.57,-18547.957,-18552.768,-18562.383,-18553.104,-18544.76,-18536.035,-18532.41,-18552.043,-18554.316,-18550.559,-18553.027,-18550.303,-18548.117,-18540.385
-18544.57,-18550.209,-18547.89,-18548.066,-18532.67,-18526.94,-18541.062,-18542.93,-18543.164,-18547.383,-18547.553,-18555.29,-18563.996,-18558.33,-18551.238,-18546.502,-18543.031,-18553.826,-18556.32,-18552.83,-18557.54,-18553.146,-18559.404,-18564.984,-18553.19
-18549.035,-18551.85,-18550.197,-18541.154,-18536.855,-18535.299,-18539.006,-18546.727,-18548.566,-18557.883,-18552.006,-18544.422,-18556.693,-18552.33,-18536.637,-18530.818,-18544.127,-18555.814,-18544.941,-18543.193,-18558.377,-18565.734,-18559.773,-18556.586,-18553.521
-18543.814,-18542.385,-18552.54,-18559.5,-18546.533,-18534.035,-18539.758,-18548.816,-18553.521,-18545.723,-18538.059,-18535.15,-18528.684,-18534.64,-18546.357,-18551.924,-18553.21,-18552.42,-18548.047,-18538.527,-18537.045,-18537.04,-18545.482,-18557.297,-18547.873
-18548.502,-18548.08,-18540.326,-18546.043,-18539.043,-18540.285,-18539.275,-18528.086,-18540.678,-18540.025,-18533.393,-18541.785,-18545.516,-18549.605,-18545.932,-18536.594,-18540.393,-18553.82,-18555.848,-18554.182,-18561.773,-18560.166,-18554.89,-18553.502,-18549.791
-18541.354,-18541.855,-18560.13,-18559.291,-18549.691,-18552.898,-18545.62,-18543.596,-18545.143,-18540.021,-18547.182,-18557.178,-18568.76,-18584.88,-18583.984,-18569.191,-18567.41,-18571.42,-18560.107,-18553.658,-18560.01,-18553.86,-18545.607,-18552.295,-18552.375
-18546.184,-18551.799,-18558.453,-18556.645,-18552.018,-18553.43,-18552.498,-18538.113,-18535.582,-18558.379,-18571.467,-18562.922,-18561.068,-18559.197,-18550.822,-18556.395,-18561.25,-18557.367,-18554.562,-18553.227,-18560.596,-18557.71,-18544.623,-18547.611,-18545.172
-18538.652,-18536.938,-18526.668,-18534.8,-18545.723,-18541.11,-18546.904,-18547.51,-18548.227,-18560.307,-18560.598,-18557.049,-18556.982,-18547.133,-18545.297,-18560.086,-18560.863,-18556.498,-18553.287,-18547.342,-18562.87,-18572.762,-18572.2,-18575.27,-18562.377
-18558.328,-18563.588,-18559.223,-18553.139,-18550.254,-18556.432,-18553.914,-18551.78,-18560.51,-18563.072,-18572.79,-18576.182,-18568.572,-18566.512,-18559.768,-18558.104,-18556.822,-18550.322,-18554.268,-18560.717,-18558.998,-18555.545,-18556.088,-18554.732,-18560.127
-18566.863,-18563.898,-18562.691,-18553.682,-18544.002,-18549.268,-18557.873,-18553.291,-18547.094,-18556.602,-18556.207,-18560.645,-18572.795,-18561.896,-18557.158,-18555.611,-18552.771,-18561.0,-18558.186,-18554.996,-18562.629,-18576.008,-18583.42,-18574.252,-18567.047
-18567.498,-18568.225,-18568.588,-18571.65,-18570.965,-18562.432,-18560.768,-18564.666,-18563.6,-18555.268,-18549.947,-18549.646,-18548.28,-18554.46,-18555.984,-18549.807,-18553.38,-18564.959,-18568.629,-18559.371,-18559.725,-18559.043,-18542.195,-18538.139,-18539.861
-18530.654,-18529.566,-18534.102,-18531.938,-18530.008,-18526.307,-18528.92,-18539.037,-18537.201,-18537.7,-18540.021,-18530.637,-18527.402,-18530.314,-18529.002,-18529.725,-18536.162,-18538.598,-18538.732,-18536.602,-18530.94,-18533.248,-18531.287,-18533.309,-18545.938
-18543.184,-18537.73,-18540.707,-18543.547,-18546.512,-18549.725,-18554.574,-18552.84,-18549.967,-18551.512,-18549.133,-18554.24,-18557.03,-18546.994,-18549.674,-18555.768,-18550.707,-18549.648,-18549.049,-18546.791,-18548.71,-18550.14,-18548.213,-18543.766,-18539.2
-18538.133,-18540.256,-18541.186,-18540.225,-18539.482,-18545.656,-18552.498,-18550.777,-18548.045,-18540.592,-18537.082,-18542.582,-18546.18,-18547.395,-18538.938,-18539.697,-18553.613,-18555.627,-18554.967,-18564.402,-18572.52,-18562.447,-18554.693,-18557.23,-18552.473
-18554.223,-18556.105,-18554.072,-18555.668,-18549.434,-18545.357,-18552.275,-18556.877,-18555.486,-18561.168,-18562.584,-18552.982,-18552.754,-18549.4,-18545.469,-18552.219,-18547.166,-18542.623,-18548.412,-18544.094,-18542.176,-18548.621,-18547.152,-18554.223,-18563.49
-18554.018,-18550.662,-18550.043,-18545.145,-18549.328,-18548.594,-18543.688,-18542.441,-18546.314,-18550.062,-18546.035,-18544.78,-18546.828,-18547.188,-18544.586,-18542.71,-18542.875,-18548.482,-18556.682,-18548.564,-18545.316,-18550.12,-18547.785,-18553.078,-18550.61
-18540.236,-18541.83,-18552.973,-18558.023,-18552.84,-18553.299,-18552.814,-18551.596,-18555.854,-18555.264,-18549.523,-18548.203,-18556.078,-18554.168,-18541.256,-18544.707,-18563.09,-18569.014,-18561.318,-18558.219,-18557.791,-18561.438,-18565.473,-18563.057,-18558.643
-18551.617,-18553.947,-18553.795,-18545.611,-18554.24,-18564.248,-18565.555,-18565.203,-18556.13,-18547.98,-18555.787,-18567.54,-18570.094,-18573.861,-18569.43,-18561.367,-18568.451,-18566.234,-18553.885,-18549.973,-18555.627,-18568.662,-18573.4,-18569.543,-18568.174
-18572.076,-18577.164,-18578.393,-18574.69,-18563.895,-18556.56,-18558.36,-18569.176,-18576.463,-18568.924,-18564.822,-18566.312,-18573.91,-18578.842,-18575.941,-18580.31,-18574.266,-18565.295,-18564.834,-18558.0,-18552.402,-18552.25,-18555.654,-18557.523,-18555.715
-18553.107,-18556.26,-18568.37,-18578.658,-18579.06,-18565.027,-18555.85,-18560.695,-18567.906,-18577.797,-18580.246,-18575.4,-18567.47,-18560.57,-18560.586,-18564.771,-18573.504,-18570.896,-18566.307,-18572.594,-18576.17,-18578.44,-18571.69,-18570.076,-18577.248
-18571.553,-18571.002,-18573.174,-18568.64,-18566.879,-18571.594,-18576.965,-18570.697,-18574.549,-18580.059,-18576.459,-18584.43,-18577.566,-18570.082,-18578.697,-18574.104,-18571.377,-18573.031,-18568.281,-18563.213,-18561.326,-18566.43,-18569.941,-18565.635,-18556.537
-18557.898,-18562.492,-18554.37,-18551.402,-18551.59,-18553.107,-18556.77,-18553.893,-18555.344,-18553.252,-18549.154,-18553.059,-18556.562,-18561.242,-18561.463,-18556.607,-18554.473,-18559.152,-18568.822,-18569.514,-18566.701,-18566.93,-18562.752,-18557.844,-18556.918
-18564.672,-18573.541,-18572.486,-18571.047,-18569.586,-18564.855,-18564.236,-18567.803,-18571.018,-18571.299,-18570.387,-18569.998,-18571.072,-18574.113,-18581.951,-18595.723,-18603.305,-18599.627,-18591.018,-18584.955,-18588.553,-18593.918,-18595.342,-18597.67,-18593.803
-18588.38,-18590.143,-18583.861,-18576.355,-18583.342,-18592.092,-18589.568,-18581.293,-18579.078,-18575.17,-18577.475,-18590.584,-18586.064,-18578.549,-18586.564,-18589.922,-18586.447,-18588.324,-18591.283,-18591.646,-18592.041,-18586.469,-18591.346,-18602.979,-18599.812
-18597.098,-18595.562,-18592.97,-18588.885,-18587.027,-18594.455,-18594.268,-18589.139,-18581.803,-18581.043,-18590.96,-18589.002,-18581.672,-18571.793,-18569.908,-18581.77,-18580.07,-18576.918,-18583.348,-18591.89,-18597.459,-18584.89,-18571.4,-18571.158,-18569.086
-18568.201,-18573.262,-18575.99,-18581.504,-18586.443,-18580.322,-18579.566,-18583.76,-18581.904,-18583.875,-18582.166,-18575.285,-18577.895,-18582.084,-18580.078,-18578.387,-18576.867,-18571.145,-18569.94,-18577.7,-18579.05,-18578.781,-18581.348,-18573.52,-18569.607
-18572.957,-18571.658,-18574.197,-18579.021,-18580.924,-18580.855,-18578.494,-18578.756,-18582.48,-18584.197,-18579.238,-18577.91,-18586.035,-18584.332,-18577.18,-18579.262,-18576.635,-18575.746,-18585.295,-18584.146,-18577.025,-18575.285,-18567.71,-18562.857,-18571.68
-18582.117,-18585.246,-18581.625,-18579.828,-18586.393,-18589.688,-18588.281,-18589.3,-18592.188,-18602.463,-18608.89,-18600.219,-18589.254,-18586.88,-18588.777,-18583.432,-18581.984,-18588.828,-18587.322,-18584.82,-18586.78,-18590.104,-18594.709,-18592.795,-18588.326
-18579.676,-18573.812,-18586.05,-18590.707,-18582.605,-18583.992,-18583.328,-18579.344,-18585.766,-18585.682,-18578.242,-18584.178,-18582.13,-18570.814,-18575.53,-18578.85,-18571.324,-18565.186,-18569.615,-18577.398,-18578.104,-18580.78,-18579.514,-18570.871,-18564.809
-18568.252,-18575.12,-18574.424,-18579.438,-18582.852,-18580.764,-18582.18,-18570.95,-18567.008,-18575.887,-18577.816,-18587.498,-18596.281,-18592.562,-18579.945,-18569.691,-18578.979,-18579.84,-18570.445,-18579.479,-18585.295,-18581.85,-18579.035,-18574.705,-18582.598
-18591.102,-18587.97,-18587.75,-18588.059,-18586.215,-18586.059,-18583.303,-18582.947,-18586.793,-18583.043,-18575.514,-18571.547,-18569.488,-18574.082,-18580.633,-18586.594,-18590.623,-18586.96,-18585.318,-18584.758,-18579.021,-18572.273,-18575.248,-18587.746,-18589.055
-18585.773,-18585.475,-18581.545,-18580.797,-18579.684,-18579.607,-18581.154,-18579.502,-18579.363,-18574.275,-18568.88,-18572.47,-18570.71,-18572.938,-18586.652,-18589.658,-18589.684,-18585.695,-18581.99,-18594.783,-18592.37,-18586.307,-18593.354,-18591.129,-18591.441
-18590.5,-18587.984,-18591.441,-18587.756,-18585.896,-18587.98,-18587.934,-18584.785,-18575.52,-18566.232,-18562.38,-18572.701,-18581.537,-18574.979,-18575.174,-18578.365,-18580.512,-18579.305,-18569.512,-18575.668,-18580.1,-18567.29,-18565.51,-18571.973,-18569.852
-18563.484,-18567.605,-18571.861,-18568.732,-18573.531,-18573.83,-18573.076,-18584.64,-18588.57,-18588.203,-18590.8,-18590.84,-18591.465,-18591.047,-18591.94,-18588.68,-18581.457,-18578.076,-18579.053,-18587.693,-18594.275,-18593.371,-18591.107,-18590.807,-18588.969
-18586.088,-18588.184,-18587.652,-18586.186,-18581.99,-18581.441,-18590.727,-18581.834,-18572.262,-18579.25,-18575.809,-18568.418,-18568.459,-18571.533,-18572.133,-18569.158,-18571.674,-18583.438,-18592.537,-18589.334,-18593.398,-18600.232,-18588.402,-18583.607,-18593.994
-18594.617,-18583.777,-18575.002,-18576.357,-18579.766,-18579.258,-18581.799,-18586.062,-18586.37,-18585.377,-18580.922,-18574.555,-18574.846,-18573.766,-18574.152,-18575.062,-18571.688,-18574.264,-18569.688,-18564.463,-18566.174,-18567.766,-18572.95,-18569.186,-18566.5
-18568.75,-18568.76,-18576.242,-18582.965,-18580.953,-18579.787,-18586.314,-18580.555,-18571.121,-18573.32,-18568.81,-18572.166,-18573.508,-18562.936,-18569.377,-18577.402,-18575.096,-18572.9,-18571.67,-18572.342,-18572.594,-18573.033,-18573.969,-18573.3,-18571.691
-18576.723,-18581.625,-18577.28,-18573.598,-18571.371,-18571.768,-18576.568,-18581.354,-18581.297,-18575.445,-18571.05,-18567.637,-18567.916,-18569.48,-18570.584,-18577.549,-18578.812,-18574.994,-18570.195,-18566.168,-18573.395,-18574.994,-18570.518,-18573.053,-18574.18
-18579.04,-18584.379,-18583.95,-18577.627,-18569.904,-18572.973,-18569.865,-18564.752,-18573.34,-18578.516,-18575.752,-18564.623,-18558.557,-18564.412,-18566.123,-18568.74,-18567.7,-18564.734,-18563.926,-18555.92,-18557.594,-18561.723,-18558.334,-18560.428,-18562.875
-18563.703,-18562.314,-18564.729,-18569.691,-18570.797,-18567.713,-18558.475,-18563.146,-18562.275,-18550.93,-18566.828,-18572.982,-18556.996,-18552.105,-18553.61,-18557.49,-18559.2,-18564.137,-18567.152,-18557.68,-18559.383,-18564.963,-18557.955,-18556.486,-18561.893
-18564.338,-18563.002,-18562.016,-18561.86,-18563.223,-18571.588,-18577.006,-18577.605,-18573.156,-18561.057,-18555.582,-18557.828,-18564.113,-18563.922,-18559.654,-18565.934,-18567.758,-18564.756,-18564.906,-18566.303,-18567.959,-18567.072,-18566.617,-18559.008,-18553.7
-18561.11,-18565.51,-18567.693,-18567.172,-18559.42,-18551.848,-18549.174,-18555.738,-18564.893,-18566.693,-18567.205,-18570.637,-18570.26,-18571.393,-18574.572,-18568.951,-18564.797,-18564.037,-18565.137,-18574.06,-18576.188,-18572.434,-18570.777,-18563.365,-18555.797
-18557.129,-18562.12,-18563.229,-18562.953,-18568.123,-18569.924,-18564.254,-18567.14,-18568.463,-18565.34,-18568.438,-18559.914,-18555.623,-18563.48,-18563.021,-18569.023,-18573.2,-18565.61,-18566.889,-18567.865,-18563.068,-18564.713,-18564.615,-18566.023,-18572.176
-18566.361,-18560.623,-18564.338,-18561.92,-18556.363,-18553.531,-18549.705,-18549.219,-18554.896,-18554.744,-18556.154,-18565.355,-18562.986,-18559.238,-18560.344,-18562.486,-18566.812,-18558.275,-18549.883,-18549.16,-18550.686,-18560.367,-18565.973,-18568.123,-18570.652
-18568.994,-18568.227,-18562.504,-18557.184,-18562.2,-18565.246,-18570.803,-18581.275,-18584.088,-18584.908,-18582.395,-18579.338,-18581.562,-18582.066,-18580.166,-18574.58,-18573.123,-18572.453,-18568.041,-18565.783,-18562.693,-18568.105,-18570.088,-18565.092,-18568.096
-18566.732,-18564.738,-18566.686,-18570.857,-18573.758,-18569.7,-18570.166,-18567.746,-18560.314,-18559.414,-18565.03,-18571.48,-18567.688,-18563.459,-18567.754,-18569.598,-18564.332,-18561.873,-18570.656,-18576.691,-18579.564,-18584.252,-18574.553,-18563.842,-18567.58
-18570.014,-18568.924,-18567.975,-18570.096,-18575.045,-18569.48,-18565.61,-18576.09,-18584.303,-18585.002,-18580.596,-18572.355,-18570.297,-18575.025,-18574.396,-18571.334,-18577.373,-18581.27,-18577.334,-18574.822,-18567.855,-18562.822,-18566.154,-18564.402,-18566.053
-18569.738,-18565.068,-18564.938,-18565.674,-18565.123,-18570.588,-18577.963,-18578.156,-18573.527,-18576.451,-18575.545,-18575.133,-18579.273,-18574.36,-18575.607,-18579.635,-18583.203,-18588.129,-18582.566,-18579.062,-18576.7,-18573.508,-18572.623,-18569.11,-18575.447
-18583.852,-18582.758,-18584.77,-18590.86,-18593.117,-18589.37,-18587.012,-18590.42,-18590.113,-18588.08,-18587.084,-18583.848,-18583.422,-18582.287,-18585.637,-18589.578,-18584.479,-18585.537,-18582.62,-18580.846,-18586.05,-18573.268,-18569.66,-18576.488,-18572.969
-18576.963,-18575.086,-18569.46,-18569.996,-18562.959,-18561.771,-18571.58,-18576.734,-18576.756,-18579.068,-18576.914,-18572.455,-18579.418,-18584.957,-18578.44,-18573.586,-18570.906,-18563.771,-18559.148,-18562.215,-18571.447,-18570.895,-18565.057,-18569.293,-18562.666
-18556.39,-18562.867,-18562.01,-18560.104,-18559.346,-18561.738,-18567.582,-18567.732,-18566.52,-18570.145,-18577.213,-18574.238,-18572.902,-18578.73,-18571.61,-18567.633,-18572.94,-18574.166,-18573.871,-18569.984,-18566.082,-18570.027,-18572.684,-18564.191,-18562.367
-18571.904,-18573.861,-18578.414,-18584.705,-18580.256,-18579.027,-18573.736,-18565.682,-18569.977,-18566.582,-18564.812,-18577.2,-18576.492,-18571.756,-18573.139,-18568.611,-18570.643,-18575.754,-18569.414,-18563.541,-18564.082,-18567.006,-18573.031,-18576.223,-18578.998
-18585.477,-18586.678,-18584.58,-18584.494,-18588.127,-18590.883,-18587.11,-18584.412,-18583.13,-18585.102,-18584.727,-18577.137,-18578.016,-18582.82,-18584.703,-18584.105,-18581.766,-18584.076,-18580.0,-18571.234,-18570.678,-18568.52,-18564.838,-18568.46,-18570.162
-18570.793,-18571.36,-18566.096,-18568.033,-18576.104,-18580.262,-18578.943,-18573.332,-18575.021,-18577.492,-18575.61,-18578.832,-18578.137,-18577.803,-18583.031,-18581.236,-18580.59,-18578.045,-18569.266,-18570.463,-18577.707,-18580.113,-18572.756,-18567.697,-18569.104
-18565.117,-18567.854,-18569.861,-18569.248,-18583.066,-18588.945,-18581.217,-18578.988,-18579.908,-18576.201,-18570.156,-18568.61,-18567.76,-18568.781,-18573.232,-18575.223,-18582.15,-18586.355,-18580.943,-18576.385,-18571.504,-18573.445,-18572.84,-18555.846,-18549.027
-18562.262,-18571.84,-18571.44,-18574.26,-18570.72,-18560.799,-18564.9,-18570.021,-18569.918,-18570.242,-18566.734,-18567.441,-18569.854,-18566.734,-18567.791,-18573.957,-18575.457,-18575.807,-18577.424,-18576.72,-18571.373,-18565.93,-18576.066,-18588.648,-18578.787
-18569.008,-18581.553,-18586.219,-18579.1,-18579.213,-18574.883,-18578.629,-18584.895,-18583.664,-18588.412,-18580.053,-18574.357,-18579.697,-18577.31,-18578.793,-18577.268,-18571.773,-18570.51,-18575.545,-18580.646,-18577.25,-18573.559,-18566.979,-18565.965,-18569.994
-18573.102,-18578.316,-18575.166,-18575.967,-18579.18,-18575.955,-18573.943,-18577.521,-18581.975,-18570.953,-18562.592,-18561.973,-18561.072,-18569.947,-18576.896,-18576.406,-18571.467,-18572.287,-18569.867,-18562.574,-18572.951,-18576.54,-18572.912,-18574.664,-18570.057
-18570.41,-18568.383,-18565.287,-18572.9,-18576.79,-18571.709,-18566.203,-18567.959,-18568.105,-18563.723,-18566.686,-18570.469,-18569.14,-18566.918,-18561.531,-18559.186,-18559.463,-18554.826,-18560.56,-18561.14,-18548.027,-18554.738,-18559.477,-18555.46,-18563.541
-18562.64,-18561.01,-18566.033,-18565.57,-18566.562,-18566.07,-18562.3,-18558.781,-18552.979,-18550.22,-18558.336,-18567.857,-18565.5,-18563.65,-18569.645,-18563.713,-18558.338,-18570.254,-18565.746,-18557.432,-18566.41,-18561.03,-18557.977,-18562.762,-18560.318
-18569.29,-18574.559,-18570.875,-18570.863,-18568.906,-18571.3,-18573.938,-18566.637,-18557.576,-18554.523,-18555.566,-18559.348,-18561.6,-18557.566,-18553.719,-18551.504,-18548.68,-18549.162,-18551.15,-18554.584,-18557.744,-18550.66,-18547.049,-18555.22,-18549.197
-18540.91,-18550.605,-18552.256,-18547.65,-18551.686,-18550.342,-18548.531,-18553.137,-18553.102,-18555.623,-18564.01,-18563.748,-18560.031,-18566.174,-18574.697,-18571.79,-18561.213,-18553.293,-18551.346,-18554.41,-18552.531,-18548.738,-18550.377,-18550.361,-18550.373
-18552.58,-18558.404,-18563.283,-18565.639,-18570.402,-18560.602,-18547.486,-18548.71,-18550.602,-18556.133,-18558.287,-18550.893,-18546.531,-18546.89,-18550.348,-18553.955,-18558.203,-18561.367,-18561.084,-18559.947,-18563.34,-18572.438,-18576.371,-18571.68,-18561.53
-18556.232,-18559.674,-18564.69,-18568.31,-18565.012,-18559.246,-18553.986,-18554.809,-18559.457,-18558.299,-18565.201,-18569.379,-18565.346,-18566.684,-18568.293,-18575.754,-18578.295,-18573.38,-18573.61,-18568.404,-18563.633,-18560.146,-18560.65,-18573.172,-18576.752
-18575.688,-18575.705,-18568.742,-18570.184,-18570.871,-18557.875,-18553.037,-18562.012,-18564.646,-18564.82,-18570.46,-18568.818,-18565.11,-18562.854,-18564.031,-18563.965,-18555.016,-18558.61,-18562.188,-18563.297,-18569.707,-18555.38,-18547.336,-18557.447,-18559.666
-18559.322,-18564.432,-18567.742,-18558.545,-18550.64,-18547.5,-18550.969,-18563.904,-18563.238,-18563.932,-18568.033,-18562.027,-18566.613,-18572.012,-18571.045,-18568.188,-18559.977,-18560.062,-18559.436,-18552.918,-18557.416,-18565.275,-18568.273,-18565.582,-18556.191
-18552.236,-18556.955,-18560.982,-18563.934,-18567.844,-18563.855,-18559.38,-18563.928,-18561.84,-18561.334,-18565.34,-18564.188,-18570.344,-18574.17,-18573.469,-18570.041,-18564.732,-18569.86,-18567.873,-18566.084,-18570.299,-18566.379,-18569.3,-18571.027,-18562.535
-18556.244,-18557.523,-18560.518,-18558.822,-18563.96,-18569.3,-18566.678,-18567.219,-18565.545,-18561.328,-18567.75,-18583.91,-18588.281,-18576.553,-18572.639,-18571.373,-18565.037,-18565.629,-18558.346,-18550.488,-18558.47,-18555.586,-18546.99,-18546.957,-18545.297
-18548.559,-18544.127,-18532.07,-18538.697,-18550.205,-18550.674,-18549.191,-18545.314,-18541.795,-18543.865,-18544.463,-18549.863,-18560.934,-18558.834,-18550.752,-18554.033,-18555.023,-18551.889,-18559.719,-18560.762,-18552.6,-18547.951,-18542.934,-18547.344,-18551.416
-18554.418,-18563.572,-18560.473,-18559.422,-18562.643,-18559.934,-18558.666,-18554.076,-18557.045,-18560.01,-18552.258,-18548.785,-18549.596,-18553.352,-18554.404,-18552.838,-18551.646,-18551.658,-18559.424,-18558.242,-18551.584,-18553.398,-18551.137,-18552.23,-18554.25
-18553.768,-18561.383,-18559.057,-18558.434,-18563.863,-18551.832,-18548.639,-18559.805,-18566.412,-18566.549,-18561.635,-18564.88,-18566.43,-18560.822,-18557.756,-18553.814,-18554.977,-18556.959,-18557.291,-18557.17,-18549.438,-18555.734,-18568.03,-18561.186,-18558.084
-18555.215,-18550.295,-18555.941,-18554.176,-18561.234,-18575.654,-18567.758,-18556.861,-18556.84,-18558.26,-18555.637,-18555.428,-18556.033,-18547.736,-18547.105,-18555.791,-18558.365,-18554.799,-18552.855,-18554.502,-18553.53,-18554.377,-18555.469,-18555.783,-18558.96
-18560.672,-18563.594,-18563.615,-18562.42,-18564.814,-18563.266,-18562.713,-18564.502,-18559.104,-18554.197,-18557.047,-18558.54,-18559.252,-18560.057,-18561.34,-18565.48,-18561.105,-18557.93,-18565.465,-18570.72,-18571.498,-18565.336,-18555.504,-18551.543,-18551.242
-18556.236,-18565.252,-18560.184,-18550.389,-18554.71,-18555.566,-18555.475,-18561.828,-18562.807,-18562.172,-18563.979,-18564.092,-18559.049,-18560.988,-18565.496,-18559.572,-18555.725,-18553.691,-18552.76,-18555.29,-18556.426,-18557.924,-18557.375,-18550.615,-18544.62
-18547.668,-18547.621,-18542.148,-18541.383,-18543.012,-18546.111,-18546.775,-18551.957,-18562.771,-18566.36,-18571.375,-18575.363,-18569.096,-18566.227,-18569.79,-18576.549,-18586.857,-18582.72,-18566.102,-18562.963,-18568.617,-18571.582,-18571.062,-18565.717,-18561.004
-18554.658,-18549.99,-18557.002,-18564.955,-18568.895,-18569.877,-18560.832,-18559.31,-18568.879,-18567.443,-18557.787,-18550.797,-18556.066,-18564.207,-18559.879,-18556.818,-18558.264,-18557.105,-18559.346,-18568.793,-18570.895,-18562.617,-18554.895,-18542.99,-18543.793
-18558.73,-18560.19,-18555.832,-18556.648,-18558.379,-18559.967,-18565.572,-18570.453,-18566.777,-18565.416,-18565.32,-18562.023,-18563.775,-18566.328,-18564.084,-18561.91,-18562.842,-18560.436,-18554.924,-18554.682,-18556.143,-18555.746,-18555.613,-18553.105,-18553.707
-18559.041,-18555.01,-18551.533,-18556.283,-18558.94,-18564.54,-18560.396,-18554.086,-18558.389,-18549.56,-18544.049,-18550.69,-18551.373,-18551.06,-18556.242,-18561.926,-18552.275,-18545.81,-18551.154,-18545.826,-18543.38,-18548.725,-18553.482,-18555.1,-18552.648
-18554.135,-18555.97,-18555.924,-18552.832,-18552.695,-18553.088,-18545.092,-18546.514,-18550.97,-18550.031,-18553.625,-18551.463,-18544.68,-18545.121,-18550.404,-18551.629,-18549.828,-18550.611,-18550.555,-18543.916,-18543.031,-18554.55,-18552.97,-18547.64,-18553.332
-18551.566,-18549.3,-18547.438,-18545.625,-18550.035,-18553.715,-18560.668,-18560.309,-18553.7,-18554.104,-18546.57,-18540.451,-18549.814,-18553.191,-18545.158,-18540.936,-18545.541,-18551.957,-18551.273,-18542.738,-18538.64,-18543.602,-18539.436,-18536.969,-18549.781
-18552.148,-18546.979,-18543.424,-18535.932,-18535.336,-18537.1,-18535.443,-18538.08,-18539.291,-18535.703,-18538.895,-18543.86,-18539.5,-18538.201,-18541.633,-18538.713,-18537.014,-18541.768,-18546.879,-18546.469,-18537.111,-18531.271,-18535.89,-18538.61,-18534.637
-18530.531,-18537.734,-18547.268,-18542.318,-18539.436,-18544.602,-18543.58,-18542.049,-18544.504,-18542.941,-18539.908,-18541.525,-18536.223,-18531.74,-18537.9,-18533.541,-18531.2,-18537.17,-18535.604,-18534.633,-18535.451,-18540.455,-18539.283,-18532.936,-18533.625
-18529.86,-18529.809,-18530.295,-18529.285,-18532.693,-18529.037,-18529.738,-18532.08,-18529.113,-18530.596,-18525.14,-18517.965,-18529.236,-18536.375,-18524.117,-18521.113,-18527.146,-18531.84,-18534.734,-18527.646,-18525.361,-18524.342,-18520.006,-18525.023,-18524.57
-18522.516,-18524.197,-18518.89,-18521.787,-18531.785,-18531.041,-18524.092,-18522.04,-18528.818,-18535.45,-18530.162,-18526.7,-18533.336,-18527.33,-18519.36,-18525.732,-18523.816,-18525.389,-18534.97,-18530.238,-18526.94,-18523.467,-18514.24,-18515.83,-18518.373
-18516.873,-18516.525,-18520.994,-18531.893,-18534.281,-18531.516,-18535.895,-18541.252,-18536.994,-18528.576,-18532.658,-18534.754,-18531.586,-18534.057,-18528.104,-18524.54,-18524.768,-18517.646,-18518.398,-18524.207,-18522.57,-18517.04,-18512.516,-18507.672,-18511.957
-18520.244,-18518.033,-18522.572,-18526.877,-18520.115,-18517.377,-18512.94,-18513.822,-18522.715,-18521.361,-18525.418,-18534.934,-18527.092,-18526.232,-18535.693,-18531.217,-18528.004,-18524.008,-18518.307,-18523.807,-18523.713,-18523.967,-18535.426,-18537.855,-18524.074
-18517.111,-18524.367,-18523.416,-18517.895,-18517.965,-18518.855,-18517.82,-18516.518,-18523.533,-18527.697,-18525.691,-18526.14,-18527.135,-18528.791,-18524.4,-18522.889,-18529.637,-18526.977,-18519.676,-18521.326,-18523.166,-18524.885,-18533.508,-18534.42,-18528.838
-18529.084,-18527.71,-18522.615,-18522.334,-18527.248,-18528.768,-18532.236,-18534.428,-18526.479,-18523.037,-18521.184,-18518.545,-18523.863,-18522.143,-18517.057,-18527.008,-18532.475,-18519.334,-18514.486,-18525.947,-18535.887,-18534.336,-18522.965,-18522.682,-18530.738
-18524.744,-18518.965,-18521.76,-18525.58,-18531.781,-18524.904,-18516.295,-18522.71,-18517.396,-18510.36,-18517.746,-18520.678,-18519.223,-18517.799,-18517.348,-18517.713,-18517.613,-18521.445,-18523.523,-18518.824,-18520.123,-18521.797,-18511.357,-18512.059,-18519.088
-18516.295,-18519.256,-18518.945,-18514.666,-18518.773,-18516.352,-18512.828,-18524.756,-18529.604,-18520.355,-18521.363,-18526.656,-18526.924,-18527.477,-18525.299,-18521.97,-18522.16,-18519.215,-18513.865,-18521.9,-18532.105,-18533.275,-18530.195,-18522.062,-18519.908
-18516.146,-18510.78,-18512.69,-18505.766,-18504.463,-18519.4,-18527.549,-18523.47,-18520.5,-18528.729,-18532.5,-18523.5,-18525.803,-18528.217,-18517.943,-18521.576,-18529.621,-18528.076,-18521.639,-18517.316,-18526.426,-18531.688,-18528.379,-18525.105,-18528.828
-18531.38,-18525.227,-18532.146,-18527.576,-18519.951,-18526.582,-18515.9,-18517.273,-18520.576,-18511.996,-18514.426,-18505.229,-18508.191,-18520.055,-18513.352,-18514.406,-18511.191,-18508.166,-18520.162,-18522.33,-18524.918,-18530.545,-18523.727,-18525.193,-18531.477
-18527.71,-18526.312,-18515.648,-18507.227,-18519.268,-18520.582,-18517.854,-18524.195,-18524.45,-18526.627,-18525.121,-18518.861,-18524.826,-18533.713,-18531.328,-18523.012,-18519.607,-18516.213,-18517.734,-18526.805,-18524.252,-18524.455,-18525.01,-18512.26,-18517.148
-18528.992,-18526.771,-18532.648,-18536.363,-18520.326,-18519.23,-18535.309,-18533.287,-18528.574,-18531.518,-18534.697,-18537.43,-18532.271,-18529.42,-18529.436,-18529.906,-18532.092,-18528.627,-18531.695,-18538.848,-18530.66,-18529.268,-18543.45,-18541.18,-18538.938
-18538.672,-18523.3,-18530.537,-18537.852,-18525.865,-18530.314,-18527.146,-18522.357,-18534.506,-18536.969,-18541.475,-18545.92,-18538.396,-18535.186,-18539.21,-18538.588,-18527.488,-18526.203,-18532.871,-18531.96,-18527.398,-18527.156,-18535.299,-18533.477,-18529.53
-18529.166,-18525.46,-18529.924,-18531.465,-18529.352,-18521.895,-18516.787,-18520.82,-18517.219,-18519.875,-18522.836,-18523.566,-18528.322,-18522.186,-18518.732,-18519.828,-18522.252,-18527.553,-18525.443,-18522.229,-18518.834,-18513.955,-18514.928,-18516.77,-18516.594
-18518.45,-18520.57,-18521.115,-18523.7,-18528.906,-18523.816,-18520.55,-18531.111,-18525.98,-18519.357,-18528.104,-18525.625,-18519.865,-18519.287,-18520.15,-18525.28,-18525.951,-18521.484,-18518.932,-18522.096,-18526.418,-18527.848,-18530.38,-18533.238,-18532.537
-18526.592,-18528.07,-18537.566,-18533.11,-18526.996,-18528.463,-18525.072,-18523.8,-18520.584,-18521.934,-18528.578,-18525.959,-18527.928,-18528.936,-18529.94,-18538.064,-18538.734,-18534.92,-18526.941,-18524.496,-18524.031,-18516.777,-18521.682,-18526.266,-18527.5
-18531.16,-18526.82,-18532.98,-18542.604,-18536.957,-18531.457,-18534.709,-18541.523,-18538.543,-18529.553,-18529.975,-18530.488,-18524.504,-18519.777,-18518.766,-18521.303,-18529.61,-18534.48,-18530.02,-18529.553,-18524.273,-18514.436,-18524.352,-18532.078,-18524.494
-18523.33,-18524.604,-18528.623,-18537.803,-18542.61,-18543.299,-18541.695,-18538.445,-18532.977,-18532.102,-18530.113,-18526.95,-18538.031,-18536.23,-18522.89,-18525.332,-18522.56,-18521.375,-18530.121,-18528.164,-18527.602,-18528.363,-18521.514,-18522.041,-18524.975
-18522.902,-18521.947,-18524.193,-18529.488,-18529.062,-18525.426,-18528.42,-18525.562,-18514.455,-18511.922,-18515.66,-18517.545,-18516.656,-18513.445,-18515.285,-18516.295,-18505.424,-18496.443,-18502.785,-18510.814,-18513.021,-18515.361,-18514.627,-18513.586,-18508.295
-18495.777,-18498.785,-18516.227,-18524.234,-18522.418,-18513.432,-18506.969,-18515.14,-18517.52,-18515.518,-18521.06,-18517.824,-18511.63,-18512.643,-18519.498,-18520.168,-18507.875,-18503.44,-18502.898,-18502.049,-18506.94,-18507.309,-18514.729,-18522.062,-18515.668
-18516.848,-18521.904,-18521.594,-18521.734,-18520.783,-18517.826,-18512.363,-18514.422,-18520.758,-18519.0,-18518.508,-18519.828,-18516.527,-18510.389,-18503.19,-18501.27,-18504.7,-18506.682,-18505.754,-18503.824,-18503.861,-18508.576,-18516.592,-18514.84,-18507.234
-18507.521,-18502.662,-18502.102,-18511.607,-18511.805,-18512.4,-18511.713,-18509.826,-18516.752,-18521.14,-18524.12,-18527.121,-18528.502,-18523.008,-18515.213,-18518.66,-18516.84,-18513.27,-18512.912,-18507.463,-18509.482,-18511.135,-18510.03,-18509.79,-18508.79
-18513.596,-18513.326,-18507.49,-18505.803,-18508.69,-18509.191,-18505.275,-18507.416,-18508.781,-18506.166,-18506.518,-18505.652,-18504.547,-18504.988,-18504.508,-18499.256,-18491.291,-18496.105,-18508.477,-18510.78,-18513.441,-18516.373,-18510.99,-18506.54,-18505.354
-18508.943,-18512.502,-18513.924,-18517.8,-18519.934,-18521.447,-18520.777,-18521.238,-18524.389,-18519.62,-18511.936,-18512.822,-18515.9,-18515.479,-18519.193,-18520.205,-18516.217,-18516.348,-18514.236,-18509.258,-18507.11,-18510.814,-18512.633,-18505.24,-18504.125
-18509.066,-18507.527,-18506.305,-18507.295,-18503.346,-18501.549,-18511.535,-18515.443,-18503.742,-18500.084,-18504.54,-18509.354,-18516.959,-18515.787,-18513.547,-18513.666,-18513.121,-18516.88,-18511.154,-18508.842,-18520.324,-18523.703,-18519.355,-18515.371,-18510.355
-18503.812,-18501.123,-18499.178,-18495.484,-18503.223,-18511.943,-18511.139,-18506.941,-18501.385,-18503.947,-18504.836,-18500.732,-18507.031,-18511.742,-18510.24,-18510.664,-18511.562,-18515.318,-18517.562,-18511.94,-18511.24,-18516.957,-18511.643,-18505.357,-18501.81
-18498.424,-18509.088,-18512.709,-18506.111,-18506.988,-18502.025,-18499.525,-18505.154,-18503.19,-18502.059,-18505.92,-18506.723,-18507.73,-18505.818,-18500.666,-18500.074,-18500.79,-18499.342,-18498.502,-18499.227,-18498.285,-18499.637,-18503.82,-18506.484,-18509.514
-18502.666,-18493.068,-18495.52,-18498.553,-18499.969,-18499.959,-18497.611,-18501.592,-18505.02,-18502.275,-18503.896,-18503.57,-18497.148,-18497.986,-18499.02,-18504.945,-18519.25,-18512.926,-18501.256,-18508.816,-18511.85,-18505.09,-18506.012,-18509.008,-18504.451
-18500.701,-18501.412,-18509.06,-18516.598,-18511.338,-18507.709,-18504.295,-18496.39,-18497.178,-18502.164,-18503.928,-18497.219,-18493.934,-18498.92,-18502.578,-18509.877,-18507.4,-18500.994,-18504.8,-18504.736,-18506.473,-18512.355,-18516.078,-18514.623,-18506.578
-18507.21,-18511.295,-18507.34,-18507.084,-18511.549,-18514.06,-18514.107,-18510.266,-18502.621,-18502.078,-18507.492,-18505.336,-18505.703,-18506.748,-18509.738,-18519.453,-18509.037,-18498.281,-18505.94,-18505.604,-18500.195,-18496.318,-18496.545,-18503.742,-18508.057
-18509.176,-18509.275,-18509.072,-18510.498,-18509.49,-18505.934,-18504.715,-18508.184,-18512.34,-18505.963,-18498.332,-18504.68,-18512.35,-18514.45,-18514.98,-18513.48,-18511.072,-18508.012,-18510.21,-18517.35,-18519.92,-18520.902,-18518.871,-18511.29,-18510.395
-18506.16,-18499.074,-18508.395,-18508.494,-18497.467,-18499.71,-18502.422,-18504.35,-18504.334,-18502.088,-18505.234,-18499.71,-18495.133,-18503.545,-18507.578,-18507.32,-18513.01,-18510.598,-18502.24,-18512.285,-18516.727,-18504.688,-18506.734,-18512.844,-18511.412
-18507.924,-18505.111,-18506.357,-18508.812,-18512.088,-18504.54,-18497.482,-18506.254,-18507.94,-18507.37,-18512.71,-18510.822,-18506.723,-18505.14,-18509.855,-18517.1,-18514.213,-18511.785,-18517.582,-18514.303,-18506.639,-18508.943,-18515.041,-18521.152,-18519.797
-18517.523,-18514.79,-18500.543,-18498.812,-18509.207,-18514.373,-18512.105,-18504.098,-18507.586,-18511.412,-18508.303,-18505.762,-18502.037,-18506.154,-18504.768,-18498.822,-18502.691,-18507.7,-18513.736,-18512.537,-18506.22,-18509.363,-18512.277,-18513.324,-18519.846
-18517.791,-18508.498,-18508.67,-18506.896,-18504.574,-18504.273,-18498.832,-18503.979,-18507.855,-18501.617,-18501.865,-18507.5,-18507.998,-18501.838,-18500.486,-18497.21,-18497.152,-18505.838,-18509.086,-18515.42,-18513.896,-18507.734,-18511.275,-18511.326,-18512.752
-18508.322,-18498.244,-18495.4,-18496.166,-18505.1,-18514.006,-18513.488,-18514.74,-18516.492,-18505.55,-18498.984,-18507.627,-18506.074,-18500.09,-18504.408,-18503.115,-18497.03,-18499.443,-18500.79,-18494.719,-18495.844,-18503.686,-18509.346,-18513.441,-18517.482
-18517.303,-18508.158,-18504.555,-18505.094,-18503.215,-18508.025,-18504.701,-18493.951,-18492.08,-18497.953,-18506.78,-18510.066,-18509.137,-18508.365,-18507.512,-18505.627,-18500.998,-18498.441,-18498.566,-18495.686,-18495.537,-18502.184,-18505.049,-18503.053,-18501.469
-18504.082,-18503.611,-18501.271,-18513.725,-18521.02,-18515.371,-18506.146,-18497.723,-18502.475,-18499.96,-18493.615,-18496.346,-18500.584,-18506.496,-18500.357,-18500.15,-18507.373,-18505.23,-18510.936,-18513.777,-18510.666,-18508.75,-18503.854,-18502.455,-18501.244
-18502.975,-18509.807,-18511.3,-18506.553,-18506.734,-18505.959,-18498.457,-18501.83,-18505.541,-18503.312,-18506.422,-18504.361,-18501.975,-18503.055,-18499.387,-18498.7,-18500.373,-18494.654,-18494.006,-18498.002,-18496.27,-18503.67,-18503.492,-18494.447,-18499.768
-18504.473,-18510.76,-18512.168,-18503.42,-18503.936,-18509.55,-18515.238,-18519.76,-18525.295,-18523.855,-18513.828,-18510.08,-18507.889,-18509.729,-18512.078,-18508.6,-18508.406,-18512.016,-18518.682,-18523.314,-18521.037,-18513.729,-18512.727,-18518.111,-18516.086
-18515.217,-18515.664,-18514.055,-18516.162,-18513.512,-18512.887,-18514.816,-18509.629,-18511.85,-18516.594,-18509.564,-18504.188,-18503.336,-18500.148,-18499.26,-18498.613,-18498.395,-18503.148,-18501.271,-18492.707,-18494.377,-18499.316,-18499.729,-18504.146,-18504.426
-18500.484,-18501.582,-18501.045,-18502.855,-18506.668,-18506.158,-18506.602,-18507.258,-18505.05,-18503.324,-18509.73,-18512.906,-18508.715,-18510.945,-18510.932,-18509.434,-18510.0,-18508.871,-18510.93,-18515.154,-18517.543,-18508.496,-18502.79,-18510.322,-18512.38
-18512.135,-18510.25,-18509.428,-18513.18,-18511.625,-18508.787,-18505.582,-18503.744,-18500.95,-18500.096,-18504.184,-18499.496,-18499.35,-18501.453,-18497.14,-18500.271,-18500.537,-18498.506,-18498.984,-18500.67,-18506.828,-18508.672,-18507.418,-18504.525,-18501.34
-18502.752,-18504.197,-18505.537,-18507.287,-18509.996,-18512.91,-18512.41,-18515.46,-18521.906,-18517.482,-18506.184,-18506.3,-18511.867,-18514.307,-18525.764,-18535.443,-18532.145,-18525.98,-18517.955,-18516.037,-18518.271,-18520.87,-18527.398,-18521.523,-18508.775
-18507.105,-18509.535,-18505.383,-18500.883,-18505.424,-18510.312,-18509.857,-18507.107,-18507.74,-18510.47,-18507.836,-18508.543,-18512.195,-18510.186,-18509.969,-18513.23,-18514.266,-18516.23,-18513.16,-18503.186,-18502.799,-18504.488,-18506.457,-18516.488,-18516.826
-18513.213,-18511.377,-18504.623,-18505.611,-18511.023,-18514.26,-18514.51,-18511.05,-18512.816,-18517.693,-18517.412,-18505.2,-18496.078,-18505.756,-18511.787,-18510.674,-18515.914,-18520.318,-18518.787,-18515.81,-18520.463,-18526.553,-18521.236,-18515.295,-18518.143
-18521.236,-18519.15,-18516.709,-18514.672,-18511.484,-18514.117,-18518.445,-18519.518,-18515.691,-18506.799,-18512.66,-18520.758,-18511.033,-18509.682,-18515.355,-18508.717,-18509.445,-18517.414,-18511.135,-18506.44,-18509.332,-18507.455,-18506.582,-18506.855,-18507.865
-18507.215,-18499.264,-18496.967,-18504.516,-18502.129,-18496.729,-18501.709,-18499.068,-18495.646,-18495.664,-18490.615,-18491.098,-18488.447,-18484.867,-18487.54,-18486.902,-18485.514,-18484.424,-18481.975,-18481.44,-18488.416,-18493.99,-18489.271,-18487.49,-18490.514
-18492.727,-18496.385,-18495.688,-18494.145,-18495.574,-18488.209,-18485.842,-18491.18,-18489.693,-18495.77,-18499.875,-18495.846,-18497.277,-18497.139,-18499.918,-18505.336,-18502.818,-18498.906,-18502.178,-18503.152,-18498.059,-18499.855,-18503.242,-18503.156,-18504.418
-18504.953,-18501.941,-18497.861,-18500.104,-18506.086,-18509.326,-18507.033,-18507.525,-18509.209,-18503.803,-18506.71,-18506.098,-18499.914,-18508.05,-18508.568,-18498.23,-18496.47,-18502.24,-18501.01,-18495.281,-18500.896,-18502.947,-18498.744,-18498.43,-18498.963
-18503.752,-18503.541,-18496.844,-18495.932,-18498.432,-18500.723,-18502.477,-18503.395,-18508.164,-18513.936,-18513.389,-18509.316,-18502.531,-18498.186,-18501.62,-18502.088,-18495.998,-18491.361,-18492.623,-18497.475,-18501.674,-18499.334,-18492.543,-18494.006,-18500.316
-18500.809,-18496.1,-18495.79,-18500.123,-18500.617,-18503.553,-18505.104,-18502.48,-18503.975,-18503.072,-18501.402,-18503.094,-18503.416,-18499.418,-18499.572,-18510.668,-18515.559,-18515.67,-18514.287,-18503.172,-18498.816,-18497.646,-18494.508,-18497.418,-18494.775
-18491.482,-18495.227,-18498.027,-18500.139,-18505.031,-18505.934,-18496.607,-18490.207,-18497.316,-18504.25,-18500.28,-18499.14,-18500.977,-18497.273,-18500.39,-18503.686,-18500.049,-18503.64,-18513.066,-18515.982,-18509.867,-18506.541,-18508.918,-18509.51,-18505.836
-18498.434,-18499.4,-18503.541,-18498.768,-18501.701,-18509.29,-18508.121,-18507.172,-18505.385,-18503.258,-18506.012,-18507.736,-18513.498,-18520.94,-18515.266,-18510.25,-18511.57,-18505.984,-18505.922,-18507.46,-18502.498,-18507.012,-18507.459,-18498.58,-18500.096
-18505.898,-18507.824,-18509.068,-18510.262,-18510.89,-18502.338,-18492.518,-18502.854,-18514.174,-18514.135,-18515.516,-18510.387,-18505.695,-18504.162,-18503.84,-18511.63,-18512.41,-18510.352,-18511.92,-18513.002,-18515.443,-18510.547,-18505.184,-18503.67,-18505.791
-18513.045,-18513.734,-18511.965,-18511.963,-18507.85,-18500.79,-18498.27,-18501.867,-18506.45,-18509.629,-18508.154,-18510.373,-18511.826,-18508.236,-18516.531,-18524.906,-18519.201,-18510.646,-18503.557,-18496.326,-18499.271,-18507.656,-18511.352,-18519.166,-18516.9
-18506.664,-18509.28,-18516.367,-18521.834,-18519.873,-18509.988,-18501.137,-18498.1,-18498.281,-18500.0,-18510.934,-18521.86,-18528.17,-18533.322,-18533.822,-18537.928,-18540.244,-18534.959,-18529.285,-18520.443,-18512.953,-18506.996,-18501.855,-18506.27,-18509.627
-18509.426,-18510.295,-18508.727,-18508.318,-18505.863,-18507.246,-18506.164,-18493.43,-18488.012,-18488.213,-18491.717,-18492.799,-18484.174,-18483.848,-18482.287,-18477.191,-18478.346,-18479.342,-18487.182,-18494.973,-18497.176,-18494.074,-18485.385,-18483.621,-18483.596
-18481.62,-18476.953,-18475.615,-18480.568,-18472.768,-18467.998,-18472.254,-18471.191,-18471.129,-18466.137,-18464.05,-18470.297,-18475.74,-18481.238,-18482.297,-18480.914,-18479.207,-18475.477,-18472.074,-18474.21,-18476.355,-18467.203,-18461.37,-18462.14,-18463.29
-18469.115,-18469.5,-18469.621,-18476.729,-18480.318,-18477.559,-18471.69,-18468.947,-18472.906,-18479.123,-18477.65,-18473.88,-18474.467,-18474.486,-18478.92,-18479.26,-18474.24,-18475.398,-18476.578,-18479.557,-18484.66,-18484.824,-18482.748,-18483.445,-18484.621
-18483.678,-18486.158,-18486.89,-18479.469,-18472.506,-18475.63,-18485.62,-18488.686,-18485.736,-18485.783,-18488.553,-18491.795,-18495.334,-18496.457,-18490.49,-18486.693,-18487.271,-18481.943,-18478.123,-18478.748,-18479.982,-18484.625,-18488.076,-18491.316,-18494.201
-18489.773,-18489.867,-18497.322,-18491.28,-18479.338,-18476.05,-18468.611,-18463.97,-18468.494,-18468.902,-18471.26,-18476.717,-18479.793,-18482.541,-18481.053,-18481.725,-18486.14,-18487.828,-18495.098,-18499.498,-18494.44,-18497.607,-18500.438,-18496.438,-18496.012
-18491.516,-18487.826,-18489.469,-18490.467,-18494.758,-18498.055,-18498.979,-18498.828,-18496.996,-18496.174,-18490.375,-18485.932,-18492.688,-18499.945,-18498.846,-18496.824,-18502.174,-18505.17,-18502.094,-18503.309,-18502.83,-18494.734,-18489.064,-18485.775,-18482.363
-18489.47,-18497.646,-18496.541,-18498.094,-18496.98,-18494.463,-18497.01,-18494.402,-18495.559,-18498.29,-18496.076,-18497.398,-18496.338,-18502.854,-18505.21,-18491.076,-18496.887,-18508.271,-18501.129,-18496.586,-18497.432,-18500.01,-18505.361,-18507.527,-18497.941
-18489.404,-18494.496,-18494.244,-18486.066,-18483.982,-18487.115,-18489.227,-18492.277,-18493.152,-18486.71,-18483.242,-18480.822,-18482.45,-18489.736,-18488.592,-18488.705,-18487.076,-18482.297,-18488.28,-18490.207,-18489.795,-18493.248,-18489.842,-18490.102,-18490.451
-18481.25,-18474.662,-18474.611,-18485.877,-18502.363,-18507.729,-18505.717,-18498.121,-18489.996,-18488.057,-18484.283,-18484.234,-18492.336,-18490.883,-18479.393,-18478.998,-18486.588,-18488.008,-18492.133,-18492.018,-18483.258,-18492.604,-18500.533,-18481.79,-18472.287
-18485.295,-18490.684,-18486.357,-18490.398,-18490.44,-18488.664,-18491.178,-18482.785,-18483.992,-18488.613,-18482.37,-18489.229,-18495.307,-18492.438,-18492.357,-18491.86,-18488.941,-18483.53,-18479.693,-18473.684,-18472.71,-18477.635,-18478.596,-18488.16,-18499.873
-18503.408,-18499.297,-18493.912,-18498.354,-18493.02,-18487.66,-18497.861,-18501.531,-18506.164,-18503.371,-18492.154,-18496.201,-18492.256,-18486.676,-18494.947,-18498.428,-18497.121,-18490.768,-18489.762,-18498.643,-18502.578,-18499.533,-18498.85,-18503.133,-18500.742
-18499.676,-18498.213,-18486.627,-18488.064,-18494.072,-18487.135,-18489.738,-18496.63,-18489.627,-18487.928,-18502.145,-18512.855,-18507.566,-18498.523,-18493.566,-18487.127,-18484.014,-18490.355,-18498.533,-18499.521,-18494.686,-18489.969,-18491.121,-18493.357,-18490.107
-18488.963,-18494.102,-18496.965,-18496.713,-18501.607,-18504.04,-18505.914,-18506.477,-18497.01,-18496.877,-18503.518,-18507.121,-18504.133,-18491.861,-18492.17,-18497.84,-18496.5,-18491.686,-18488.348,-18493.316,-18488.266,-18486.715,-18502.8,-18511.002,-18515.195
-18509.9,-18500.006,-18503.764,-18497.92,-18493.303,-18491.338,-18485.045,-18499.283,-18502.285,-18492.363,-18495.494,-18493.541,-18490.678,-18491.912,-18495.594,-18492.154,-18484.184,-18488.629,-18488.09,-18489.6,-18497.617,-18493.797,-18490.941,-18483.74,-18473.344
-18480.848,-18488.156,-18495.438,-18511.965,-18506.623,-18492.242,-18496.635,-18495.9,-18491.326,-18497.74,-18498.61,-18496.814,-18498.51,-18494.715,-18495.635,-18498.98,-18499.213,-18501.627,-18494.902,-18492.355,-18501.295,-18498.777,-18492.984,-18498.18,-18504.477
-18504.244,-18501.307,-18499.438,-18504.615,-18510.629,-18505.893,-18500.75,-18494.777,-18498.658,-18510.887,-18502.686,-18501.795,-18504.8,-18489.168,-18491.033,-18499.762,-18498.098,-18500.994,-18503.824,-18504.25,-18505.436,-18509.08,-18511.385,-18511.84,-18510.662
-18509.002,-18506.432,-18496.166,-18496.238,-18506.887,-18507.633,-18501.637,-18494.527,-18496.512,-18504.08,-18505.99,-18506.035,-18499.742,-18493.031,-18495.373,-18497.959,-18500.506,-18501.93,-18499.674,-18502.838,-18502.44,-18499.496,-18503.941,-18499.627,-18497.799
-18506.457,-18508.26,-18512.83,-18516.766,-18511.84,-18513.652,-18515.719,-18507.18,-18504.729,-18510.355,-18512.064,-18510.352,-18503.34,-18504.639,-18513.361,-18505.184,-18501.324,-18508.82,-18502.342,-18501.85,-18515.71,-18520.809,-18516.385,-18505.06,-18498.582
-18503.63,-18501.582,-18503.03,-18511.395,-18501.916,-18493.914,-18498.713,-18496.07,-18495.043,-18500.488,-18504.24,-18502.707,-18498.912,-18501.04,-18500.986,-18499.768,-18497.297,-18492.215,-18493.797,-18494.963,-18498.014,-18501.686,-18505.338,-18507.6,-18494.805
-18491.098,-18499.693,-18499.941,-18501.822,-18504.377,-18502.709,-18502.76,-18504.541,-18501.16,-18497.533,-18501.76,-18506.928,-18508.902,-18506.059,-18502.18,-18502.697,-18507.375,-18514.758,-18519.111,-18513.959,-18504.879,-18505.094,-18503.576,-18500.465,-18506.053
-18501.969,-18497.27,-18498.951,-18496.65,-18505.191,-18512.395,-18507.709,-18505.994,-18501.957,-18499.773,-18503.21,-18501.1,-18503.258,-18512.19,-18507.299,-18495.668,-18496.469,-18499.541,-18504.387,-18508.613,-18503.357,-18505.127,-18501.738,-18490.098,-18496.555
-18503.35,-18499.865,-18500.209,-18501.389,-18500.045,-18500.035,-18503.412,-18503.125,-18502.309,-18508.281,-18509.953,-18508.578,-18511.97,-18516.156,-18518.713,-18511.35,-18501.021,-18502.197,-18502.406,-18500.85,-18504.707,-18509.703,-18516.654,-18507.83,-18492.045
-18501.176,-18504.373,-18491.781,-18499.752,-18508.752,-18502.584,-18499.654,-18494.152,-18493.55,-18499.715,-18495.521,-18499.83,-18514.945,-18516.758,-18509.918,-18508.758,-18506.943,-18501.336,-18497.203,-18488.775,-18493.418,-18507.121,-18507.44,-18512.223,-18515.797
-18513.96,-18511.059,-18500.44,-18505.078,-18511.986,-18496.13,-18492.008,-18510.303,-18515.584,-18507.65,-18504.5,-18508.48,-18513.943,-18507.822,-18504.342,-18510.049,-18511.795,-18515.203,-18516.764,-18514.807,-18512.475,-18508.588,-18511.451,-18519.807,-18517.08
-18509.28,-18513.477,-18512.223,-18511.043,-18523.262,-18526.26,-18527.271,-18524.635,-18510.057,-18504.123,-18498.244,-18496.049,-18506.754,-18513.693,-18519.693,-18515.846,-18507.357,-18509.816,-18504.477,-18499.104,-18499.232,-18501.418,-18510.645,-18510.701,-18512.729
-18519.988,-18511.82,-18500.98,-18499.639,-18502.908,-18506.361,-18508.445,-18511.488,-18512.232,-18505.916,-18502.225,-18506.271,-18511.674,-18515.951,-18510.488,-18498.547,-18501.16,-18511.34,-18505.555,-18505.543,-18518.018,-18515.746,-18514.018,-18510.023,-18504.031
-18508.812,-18503.969,-18508.027,-18520.273,-18519.057,-18516.234,-18509.785,-18503.217,-18502.986,-18504.857,-18507.15,-18509.379,-18509.672,-18509.484,-18514.846,-18517.76,-18514.027,-18511.42,-18507.826,-18502.629,-18505.379,-18514.77,-18518.576,-18514.902,-18509.268
-18505.5,-18503.041,-18502.693,-18510.82,-18519.588,-18512.822,-18501.893,-18500.914,-18499.086,-18503.703,-18515.812,-18515.414,-18511.21,-18503.158,-18493.234,-18495.518,-18496.047,-18501.115,-18511.438,-18511.432,-18508.615,-18501.994,-18502.395,-18508.158,-18504.287
-18508.918,-18514.463,-18505.508,-18500.246,-18503.383,-18501.027,-18503.12,-18513.746,-18507.764,-18504.059,-18511.596,-18508.498,-18509.04,-18508.283,-18506.625,-18512.168,-18510.285,-18506.852,-18510.027,-18520.545,-18521.836,-18515.871,-18521.871,-18519.97,-18510.479
-18507.113,-18506.943,-18512.25,-18516.135,-18515.041,-18510.043,-18505.158,-18506.838,-18511.94,-18515.596,-18510.887,-18504.514,-18506.64,-18504.645,-18497.178,-18495.672,-18499.914,-18506.328,-18512.873,-18514.387,-18506.408,-18502.957,-18498.55,-18486.764,-18494.252
-18506.498,-18509.074,-18512.85,-18510.89,-18506.793,-18508.852,-18513.008,-18502.158,-18491.82,-18497.254,-18495.746,-18497.05,-18510.541,-18519.88,-18514.645,-18510.35,-18519.908,-18517.975,-18507.145,-18508.54,-18514.502,-18515.896,-18517.275,-18517.055,-18511.465
-18512.744,-18515.098,-18512.268,-18514.203,-18520.0,-18528.742,-18530.777,-18521.371,-18512.453,-18510.709,-18514.021,-18516.254,-18517.355,-18514.092,-18512.777,-18513.938,-18497.842,-18492.344,-18506.896,-18500.496,-18493.775,-18503.863,-18506.908,-18508.65,-18511.914
-18507.959,-18499.52,-18492.541,-18490.861,-18495.291,-18498.994,-18499.754,-18500.545,-18491.357,-18484.654,-18492.104,-18493.605,-18492.627,-18501.107,-18510.557,-18508.46,-18500.912,-18505.217,-18506.229,-18494.592,-18490.398,-18492.734,-18494.98,-18502.742,-18507.75
-18508.477,-18521.014,-18530.871,-18519.469,-18513.21,-18524.85,-18537.676,-18544.83,-18543.822,-18533.21,-18523.943,-18526.482,-18521.035,-18516.066,-18531.016,-18527.602,-18516.543,-18513.348,-18496.969,-18493.393,-18492.744,-18489.99,-18500.27,-18492.873,-18478.28
-18480.363,-18488.285,-18489.691,-18483.145,-18476.725,-18480.906,-18492.451,-18488.629,-18482.543,-18484.125,-18477.191,-18471.885,-18473.898,-18476.773,-18471.305,-18469.254,-18475.338,-18471.436,-18470.748,-18472.492,-18469.057,-18466.488,-18460.193,-18454.635,-18452.885
-18454.68,-18453.371,-18447.781,-18448.297,-18452.258,-18451.322,-18447.717,-18450.572,-18447.748,-18440.64,-18445.94,-18446.941,-18447.924,-18461.115,-18469.754,-18469.553,-18462.857,-18454.184,-18453.459,-18457.95,-18456.467,-18457.572,-18465.902,-18469.725,-18474.451
-18473.049,-18468.588,-18470.973,-18464.41,-18466.523,-18476.025,-18470.28,-18468.799,-18467.713,-18465.037,-18473.627,-18474.848,-18472.64,-18473.258,-18469.137,-18469.002,-18469.543,-18471.953,-18474.424,-18474.014,-18475.367,-18470.025,-18471.502,-18479.07,-18475.582
-18471.736,-18473.94,-18477.467,-18472.46,-18468.691,-18473.057,-18469.74,-18465.191,-18466.373,-18466.203,-18463.807,-18464.146,-18464.664,-18462.398,-18469.33,-18479.766,-18474.803,-18468.129,-18474.035,-18478.174,-18485.256,-18492.877,-18482.352,-18474.412,-18475.691
-18474.65,-18474.041,-18470.97,-18473.43,-18474.416,-18463.98,-18457.986,-18463.137,-18468.373,-18464.688,-18469.225,-18478.05,-18472.945,-18474.01,-18479.832,-18478.72,-18478.568,-18477.77,-18481.293,-18484.164,-18476.9,-18472.463,-18471.965,-18471.66,-18472.91
-18468.078,-18468.209,-18477.434,-18480.674,-18486.22,-18492.16,-18488.38,-18482.316,-18476.504,-18479.816,-18482.592,-18476.02,-18478.885,-18483.389,-18484.719,-18488.854,-18487.14,-18482.512,-18483.92,-18487.97,-18485.967,-18485.049,-18487.521,-18487.092,-18486.701
-18490.43,-18493.047,-18484.762,-18483.934,-18494.955,-18498.662,-18495.66,-18493.193,-18498.43,-18491.787,-18480.668,-18491.219,-18494.184,-18492.432,-18496.342,-18492.291,-18497.227,-18504.904,-18500.03,-18494.031,-18497.154,-18500.852,-18494.412,-18485.998,-18479.572
-18481.818,-18490.877,-18488.66,-18485.41,-18491.572,-18496.781,-18498.023,-18494.52,-18494.53,-18498.129,-18493.934,-18495.393,-18498.648,-18494.986,-18499.1,-18499.217,-18495.941,-18500.275,-18495.56,-18485.836,-18486.76,-18492.447,-18493.285,-18488.857,-18484.568
-18488.812,-18492.898,-18488.709,-18493.285,-18498.953,-18493.469,-18489.656,-18488.56,-18489.209,-18491.562,-18495.455,-18498.074,-18494.291,-18492.29,-18489.525,-18483.861,-18484.596,-18486.77,-18486.879,-18486.477,-18481.23,-18476.07,-18479.69,-18484.16,-18484.646
-18483.604,-18478.324,-18477.219,-18480.072,-18486.617,-18496.133,-18491.145,-18480.014,-18472.87,-18478.396,-18490.664,-18490.625,-18495.814,-18492.014,-18483.86,-18492.041,-18484.855,-18478.543,-18483.797,-18483.352,-18485.818,-18488.45,-18488.324,-18484.889,-18483.47
-18482.174,-18480.469,-18480.285,-18473.854,-18476.418,-18484.926,-18488.867,-18492.395,-18493.84,-18498.064,-18500.322,-18499.582,-18495.6,-18496.475,-18505.562,-18501.318,-18497.023,-18500.836,-18502.346,-18504.42,-18497.836,-18492.398,-18494.52,-18490.69,-18487.633
-18488.803,-18489.348,-18493.486,-18501.562,-18505.766,-18504.887,-18504.047,-18500.158,-18498.184,-18506.398,-18509.67,-18504.246,-18503.209,-18503.338,-18503.523,-18502.928,-18496.63,-18497.086,-18503.6,-18501.385,-18504.24,-18512.904,-18511.527,-18513.648,-18515.23
-18507.238,-18502.695,-18497.52,-18495.508,-18500.428,-18497.236,-18490.273,-18493.156,-18499.678,-18499.318,-18501.146,-18505.938,-18501.348,-18500.281,-18504.639,-18503.72,-18506.703,-18504.557,-18498.307,-18499.137,-18496.637,-18496.723,-18498.402,-18499.209,-18501.996
-18500.18,-18499.664,-18497.264,-18497.805,-18507.852,-18509.723,-18500.578,-18497.535,-18500.4,-18498.254,-18502.215,-18505.926,-18500.594,-18497.99,-18491.043,-18489.945,-18499.941,-18503.467,-18505.758,-18507.947,-18503.715,-18499.158,-18503.164,-18508.773,-18504.318
-18503.242,-18507.115,-18499.861,-18494.43,-18498.377,-18496.172,-18495.203,-18502.55,-18506.71,-18506.59,-18507.432,-18511.832,-18510.404,-18505.508,-18511.354,-18512.283,-18505.98,-18506.557,-18503.73,-18499.246,-18501.48,-18500.682,-18498.709,-18500.34,-18499.156
