0.0,-14917.927,-41266.582,-22899.299,3037.3945,-23859.066,-19063.615,-6352.8335,-25546.08,-12143.941,-17018.008,-22474.326,-12530.136,-24053.717,-16098.624,-19139.193,-21047.027,-15030.882,-21675.193,-14924.86,-18225.54,-16948.93,-14559.432,-18016.389,-13587.501
-17209.3,-15216.338,-15887.154,-17463.129,-15737.084,-18696.264,-17041.312,-18709.426,-18699.055,-18234.57,-19435.338,-17898.176,-18852.172,-17725.432,-17512.438,-17368.148,-16312.028,-16732.049,-15789.136,-16115.424,-15968.272,-15953.223,-16534.281,-16437.707,-17204.184
-17335.713,-17811.68,-18191.414,-18237.875,-18581.957,-18356.857,-18394.682,-18114.744,-17792.555,-17545.898,-17069.686,-16859.588,-16487.91,-16329.048,-16235.962,-16187.31,-16356.03,-16478.076,-16798.127,-17084.115,-17395.83,-17716.307,-17932.996,-18151.744,-18213.254
-18227.482,-18134.19,-17950.834,-17735.373,-17443.52,-17184.547,-16902.148,-16673.436,-16523.447,-16433.432,-16450.994,-16522.24,-16680.084,-16887.06,-17121.607,-17377.166,-17603.201,-17804.092,-17939.805,-18009.87,-18010.535,-17937.541,-17811.387,-17629.865,-17425.92
-17208.137,-16998.63,-16828.627,-16705.213,-16650.207,-16657.709,-16717.258,-16827.525,-16983.97,-17162.361,-17342.682,-17521.428,-17668.938,-17774.557,-17829.63,-17825.324,-17775.88,-17678.025,-17542.637,-17389.44,-17229.842,-17081.56,-16956.225,-16865.344,-16823.824
-16830.262,-16872.924,-16953.504,-17063.363,-17190.656,-17325.848,-17449.139,-17555.627,-17634.31,-17673.959,-17674.236,-17633.518,-17563.797,-17470.75,-17361.713,-17252.193,-17147.428,-17061.54,-17005.027,-16972.43,-16972.07,-17007.084,-17062.588,-17138.096,-17224.633
-17310.379,-17393.46,-17459.36,-17508.24,-17532.393,-17523.967,-17498.78,-17453.883,-17394.547,-17330.37,-17260.174,-17194.209,-17138.768,-17101.219,-17086.234,-17091.713,-17111.309,-17140.785,-17187.576,-17242.938,-17295.377,-17343.738,-17381.084,-17409.629,-17425.764
-17420.992,-17405.133,-17381.447,-17347.262,-17310.438,-17274.523,-17239.066,-17210.166,-17192.465,-17184.45,-17188.607,-17202.352,-17219.408,-17238.197,-17255.598,-17277.027,-17300.508,-17318.773,-17332.309,-17337.574,-17337.324,-17333.656,-17326.732,-17316.438,-17304.467
-17292.193,-17278.562,-17273.365,-17268.938,-17264.553,-17268.105,-17264.328,-17264.379,-17272.504,-17273.127,-17272.084,-17270.055,-17271.719,-17273.332,-17265.49,-17258.977,-17259.914,-17270.14,-17277.996,-17281.744,-17292.29,-17301.418,-17311.385,-17323.834,-17332.941
-17332.434,-17323.55,-17315.664,-17299.766,-17281.965,-17270.389,-17255.506,-17239.914,-17228.732,-17224.396,-17224.92,-17230.629,-17242.059,-17258.262,-17279.732,-17298.396,-17316.627,-17336.482,-17351.51,-17364.299,-17368.803,-17359.357,-17342.95,-17320.053,-17291.17
-17261.268,-17233.344,-17212.25,-17197.16,-17185.111,-17180.625,-17185.014,-17198.514,-17224.432,-17255.412,-17286.758,-17321.379,-17351.32,-17374.014,-17388.893,-17391.693,-17380.541,-17352.176,-17320.857,-17289.506,-17252.104,-17220.133,-17195.607,-17180.096,-17164.678
-17152.102,-17162.633,-17184.887,-17216.133,-17252.613,-17284.486,-17319.19,-17347.295,-17372.584,-17391.676,-17391.293,-17383.15,-17362.625,-17332.781,-17297.7,-17254.486,-17215.396,-17182.611,-17163.697,-17152.61,-17145.535,-17162.025,-17193.86,-17227.352,-17265.746
-17306.63,-17340.639,-17371.219,-17400.46,-17414.264,-17414.97,-17405.658,-17380.096,-17345.875,-17310.143,-17268.684,-17222.344,-17190.756,-17174.58,-17156.9,-17151.842,-17167.082,-17190.455,-17221.875,-17259.262,-17300.35,-17343.293,-17380.145,-17408.791,-17428.326
-17432.188,-17416.623,-17386.197,-17351.229,-17315.965,-17275.371,-17234.404,-17200.254,-17174.982,-17159.775,-17151.594,-17160.664,-17186.854,-17221.346,-17262.598,-17298.95,-17336.148,-17374.633,-17400.545,-17414.262,-17416.93,-17408.125,-17386.244,-17355.39,-17318.236
-17279.734,-17243.162,-17211.654,-17190.834,-17172.5,-17166.283,-17174.209,-17190.555,-17220.068,-17256.729,-17298.43,-17331.803,-17359.746,-17386.629,-17402.008,-17407.877,-17396.031,-17376.623,-17350.76,-17311.828,-17276.96,-17245.488,-17218.441,-17194.168,-17175.97
-17174.781,-17182.2,-17203.01,-17231.947,-17259.81,-17296.748,-17330.389,-17355.902,-17381.05,-17396.004,-17400.3,-17395.021,-17374.588,-17344.43,-17313.342,-17281.691,-17251.691,-17227.826,-17204.662,-17188.723,-17185.898,-17190.326,-17206.95,-17231.379,-17258.9
-17290.979,-17319.75,-17344.018,-17367.365,-17385.346,-17391.041,-17387.078,-17369.436,-17340.664,-17318.445,-17292.14,-17259.725,-17238.541,-17221.469,-17205.799,-17199.13,-17205.598,-17221.486,-17239.12,-17266.38,-17298.05,-17321.562,-17345.13,-17366.506,-17377.523
-17378.475,-17369.668,-17352.672,-17328.652,-17304.717,-17279.578,-17257.219,-17243.623,-17223.838,-17212.367,-17215.86,-17219.953,-17234.898,-17249.246,-17263.283,-17291.37,-17318.58,-17338.291,-17353.227,-17364.477,-17366.283,-17359.81,-17347.469,-17326.941,-17309.021
-17286.928,-17263.494,-17248.17,-17231.775,-17223.95,-17224.24,-17226.238,-17234.936,-17247.3,-17263.377,-17283.793,-17305.283,-17322.107,-17335.648,-17345.436,-17346.213,-17340.168,-17327.23,-17312.354,-17296.137,-17277.303,-17263.596,-17249.889,-17236.045,-17230.775
-17230.082,-17237.918,-17253.951,-17262.932,-17272.326,-17291.934,-17310.447,-17322.54,-17333.047,-17342.143,-17347.982,-17349.334,-17337.578,-17323.178,-17314.322,-17296.39,-17283.463,-17278.82,-17270.27,-17266.676,-17264.193,-17265.684,-17271.398,-17277.285,-17290.828
-17302.156,-17311.117,-17319.604,-17324.527,-17329.766,-17331.756,-17332.857,-17327.377,-17315.402,-17304.465,-17291.363,-17278.09,-17267.99,-17265.223,-17261.346,-17254.67,-17255.771,-17264.312,-17273.773,-17276.031,-17282.152,-17291.586,-17299.24,-17312.473,-17320.389
-17323.244,-17320.9,-17312.63,-17306.236,-17297.982,-17292.86,-17288.81,-17280.498,-17275.77,-17270.873,-17265.416,-17269.463,-17276.691,-17281.75,-17287.01,-17292.385,-17300.902,-17306.482,-17311.764,-17318.422,-17319.443,-17319.12,-17311.203,-17301.924,-17301.04
-17294.588,-17282.43,-17277.105,-17277.05,-17271.291,-17264.047,-17266.494,-17277.266,-17287.64,-17291.783,-17294.955,-17300.602,-17305.139,-17312.174,-17323.73,-17330.451,-17326.688,-17320.205,-17321.809,-17321.744,-17313.135,-17311.97,-17313.318,-17308.65,-17307.545
-17307.484,-17307.041,-17310.26,-17312.611,-17315.69,-17320.98,-17319.486,-17316.592,-17318.666,-17319.37,-17321.273,-17319.213,-17312.686,-17313.73,-17316.643,-17315.72,-17314.04,-17313.926,-17311.502,-17308.05,-17310.598,-17312.986,-17315.637,-17315.312,-17314.186
-17319.777,-17318.613,-17317.15,-17318.074,-17317.078,-17320.734,-17316.262,-17308.107,-17306.02,-17307.11,-17309.75,-17307.746,-17308.244,-17312.727,-17311.37,-17304.129,-17302.479,-17311.633,-17317.61,-17316.893,-17319.938,-17324.246,-17319.479,-17315.068,-17320.072
-17326.055,-17329.299,-17328.031,-17326.395,-17324.67,-17322.645,-17323.244,-17321.613,-17322.78,-17320.418,-17313.436,-17315.312,-17321.523,-17327.49,-17328.377,-17325.98,-17322.477,-17316.479,-17314.834,-17315.033,-17319.629,-17324.078,-17322.469,-17322.434,-17322.295
-17324.188,-17324.215,-17323.08,-17325.988,-17324.1,-17324.156,-17329.46,-17331.785,-17329.129,-17323.434,-17320.576,-17319.562,-17319.736,-17324.22,-17329.613,-17331.914,-17333.781,-17334.7,-17333.307,-17332.812,-17331.467,-17335.203,-17341.463,-17337.86,-17334.52
-17334.86,-17334.223,-17335.135,-17334.45,-17330.598,-17324.861,-17325.492,-17326.436,-17317.162,-17312.24,-17314.154,-17320.035,-17329.545,-17331.918,-17332.232,-17336.848,-17341.508,-17341.098,-17335.11,-17334.59,-17338.152,-17336.863,-17334.424,-17334.277,-17333.64
-17332.145,-17332.213,-17329.1,-17327.537,-17328.91,-17325.686,-17326.533,-17327.004,-17327.984,-17335.463,-17338.633,-17340.129,-17338.445,-17340.645,-17346.123,-17337.469,-17331.498,-17332.033,-17342.668,-17371.256,-17377.066,-17363.625,-17347.055,-17308.568,-17298.742
-17319.38,-17320.502,-17341.215,-17367.771,-17360.309,-17351.506,-17347.186,-17354.498,-17375.059,-17376.797,-17367.762,-17364.79,-17360.121,-17348.305,-17331.941,-17337.074,-17357.658,-17349.922,-17340.053,-17363.666,-17390.244,-17392.17,-17378.27,-17359.107,-17337.57
-17348.596,-17382.352,-17390.135,-17389.008,-17390.807,-17395.809,-17410.586,-17427.834,-17440.314,-17421.889,-17391.973,-17391.824,-17392.012,-17356.865,-17332.406,-17351.455,-17349.074,-17326.549,-17318.252,-17306.863,-17305.037,-17305.494,-17307.922,-17308.248,-17307.615
-17319.912,-17319.002,-17333.7,-17352.926,-17348.436,-17356.48,-17360.164,-17344.127,-17324.443,-17330.938,-17353.129,-17351.777,-17355.504,-17364.2,-17351.852,-17356.674,-17385.658,-17386.764,-17375.314,-17363.78,-17337.566,-17336.455,-17314.893,-17268.299,-17268.992
-17278.102,-17291.021,-17309.203,-17303.502,-17298.094,-17310.426,-17338.68,-17346.912,-17327.955,-17309.646,-17296.51,-17289.834,-17296.09,-17309.521,-17310.31,-17311.709,-17309.645,-17296.33,-17287.904,-17281.797,-17289.018,-17290.717,-17302.205,-17349.932,-17373.354
-17382.402,-17384.443,-17336.865,-17305.87,-17317.812,-17319.08,-17312.342,-17300.576,-17289.12,-17285.871,-17275.941,-17279.885,-17282.77,-17273.082,-17300.516,-17327.695,-17324.887,-17330.768,-17336.424,-17349.352,-17369.227,-17371.191,-17363.348,-17336.852,-17309.64
-17311.986,-17319.922,-17336.982,-17370.477,-17396.81,-17402.56,-17376.303,-17358.148,-17358.678,-17326.729,-17283.857,-17268.457,-17279.209,-17288.85,-17305.238,-17326.365,-17285.727,-17256.582,-17291.658,-17284.242,-17264.414,-17297.992,-17300.344,-17283.533,-17314.602
-17327.643,-17353.799,-17401.984,-17407.973,-17429.52,-17397.547,-17313.416,-17290.594,-17261.572,-17238.693,-17262.533,-17253.123,-17212.453,-17239.254,-17315.473,-17338.691,-17342.025,-17354.438,-17347.893,-17353.266,-17356.498,-17332.95,-17332.92,-17342.914,-17313.588
-17285.547,-17283.217,-17295.885,-17328.926,-17329.988,-17270.596,-17255.83,-17294.514,-17303.125,-17322.033,-17345.682,-17339.549,-17317.725,-17282.924,-17260.973,-17239.008,-17226.748,-17245.184,-17281.502,-17307.82,-17319.23,-17375.572,-17425.928,-17441.383,-17444.143
-17403.812,-17374.418,-17322.904,-17260.348,-17267.564,-17285.074,-17319.902,-17355.826,-17346.91,-17308.033,-17256.686,-17247.285,-17261.139,-17255.818,-17251.729,-17270.824,-17257.07,-17239.03,-17295.018,-17310.496,-17311.307,-17329.307,-17270.617,-17227.771,-17228.545
-17250.074,-17278.19,-17266.748,-17269.688,-17258.17,-17215.166,-17216.307,-17237.408,-17269.441,-17324.074,-17346.34,-17299.871,-17212.47,-17189.33,-17245.852,-17273.027,-17244.217,-17216.688,-17258.666,-17321.117,-17298.156,-17231.467,-17210.475,-17246.975,-17289.396
-17309.266,-17287.207,-17253.758,-17271.045,-17257.764,-17204.857,-17163.22,-17125.748,-17169.285,-17232.22,-17229.842,-17250.94,-17261.594,-17226.246,-17215.627,-17190.99,-17181.01,-17226.342,-17241.588,-17260.666,-17289.658,-17276.875,-17220.361,-17140.51,-17124.682
-17150.002,-17205.377,-17270.424,-17266.262,-17232.998,-17169.443,-17154.184,-17164.334,-17114.572,-17153.492,-17222.232,-17269.428,-17303.14,-17220.383,-17154.736,-17155.992,-17178.785,-17248.254,-17261.81,-17192.418,-17117.336,-17111.525,-17205.506,-17249.004,-17178.764
-17154.16,-17173.715,-17183.232,-17192.068,-17152.88,-17124.506,-17117.854,-17137.87,-17205.773,-17210.627,-17193.01,-17217.365,-17216.639,-17149.592,-17081.326,-17099.922,-17135.006,-17186.371,-17251.572,-17221.053,-17181.998,-17188.248,-17185.957,-17179.9,-17163.94
-17169.635,-17191.426,-17206.104,-17213.326,-17183.24,-17114.84,-17032.426,-17004.455,-17039.727,-17098.596,-17156.482,-17160.65,-17147.285,-17154.152,-17176.072,-17224.223,-17263.305,-17236.781,-17168.695,-17145.74,-17120.723,-17071.258,-17085.29,-17128.88,-17176.865
-17226.102,-17214.066,-17208.96,-17253.219,-17228.924,-17143.986,-17102.467,-17119.914,-17150.578,-17144.51,-17092.22,-17069.613,-17124.525,-17180.873,-17217.39,-17167.043,-17060.092,-17090.39,-17185.506,-17252.63,-17255.19,-17200.648,-17213.273,-17196.22,-17108.432
-17066.236,-17045.602,-17032.865,-17072.04,-17126.04,-17138.686,-17148.459,-17167.715,-17127.352,-17080.074,-17130.361,-17167.912,-17125.707,-17141.842,-17177.367,-17164.305,-17187.55,-17177.822,-17153.97,-17218.17,-17196.072,-17062.121,-16992.615,-17061.416,-17194.098
-17184.518,-17130.412,-17147.055,-17103.582,-17084.764,-17117.904,-17133.703,-17142.281,-17131.666,-17120.271,-17082.385,-17059.887,-17054.277,-17059.752,-17158.342,-17222.176,-17188.86,-17144.973,-17173.512,-17285.168,-17298.816,-17185.168,-17046.668,-16985.287,-17017.465
-17016.559,-17038.166,-17130.346,-17191.99,-17141.605,-17085.941,-17111.35,-17084.916,-17122.258,-17201.826,-17215.389,-17258.78,-17177.209,-17065.514,-17053.004,-17024.912,-17051.15,-17114.533,-17156.898,-17185.828,-17216.379,-17252.373,-17251.479,-17206.984,-17136.934
-17108.12,-17089.582,-17014.477,-16993.797,-17053.627,-17083.807,-17083.84,-17114.945,-17145.637,-17109.021,-17071.512,-17042.568,-17010.977,-17070.299,-17077.557,-17039.736,-17077.896,-17044.857,-17039.273,-17089.84,-17064.467,-17084.146,-17138.062,-17136.969,-17143.047
-17145.936,-17115.21,-17129.969,-17124.352,-17092.717,-17124.082,-17069.361,-17023.53,-17066.086,-17082.393,-17176.643,-17197.182,-17070.79,-16999.676,-17019.082,-17113.172,-17154.393,-17171.465,-17210.225,-17156.38,-17115.021,-17047.553,-16940.098,-16983.906,-17042.852
-17016.977,-17037.773,-17032.89,-16950.193,-16976.934,-17110.457,-17156.598,-17112.398,-17063.098,-17055.736,-17048.502,-16998.805,-17002.143,-17025.455,-17007.865,-16995.91,-16999.553,-17072.232,-17135.125,-17120.904,-17176.86,-17209.404,-17083.656,-17011.867,-17064.12
-17100.87,-17082.902,-17038.54,-17060.973,-17084.748,-17065.018,-17095.135,-17068.729,-17024.086,-17008.242,-16965.615,-17015.94,-17054.326,-17021.469,-17049.502,-17079.07,-17073.87,-17036.998,-16968.703,-16924.094,-16907.13,-16921.0,-17005.791,-17128.162,-17193.55
-17221.842,-17214.719,-17103.148,-16970.54,-16921.018,-16965.605,-17020.445,-17005.824,-17024.45,-17130.846,-17145.133,-17013.209,-16966.172,-16974.29,-16917.182,-16913.86,-16902.553,-16878.486,-16867.69,-16845.545,-16919.955,-16974.62,-16988.822,-17041.709,-17068.041
-17053.104,-16964.164,-16906.854,-16902.613,-16910.898,-16971.604,-16972.098,-16981.607,-17045.117,-17037.8,-17001.408,-16951.635,-16898.379,-16896.168,-16880.904,-16858.934,-16890.47,-16888.184,-16898.303,-16933.967,-16911.453,-16944.496,-16942.082,-16884.623,-16909.129
-16926.34,-16951.637,-16958.648,-16955.2,-17013.943,-17038.508,-17080.826,-17139.275,-17113.441,-17063.008,-16961.027,-16782.527,-16743.203,-16790.115,-16739.262,-16841.61,-17013.928,-17057.816,-17121.39,-17089.955,-17029.344,-17009.496,-16936.357,-16932.11,-16909.668
-16902.236,-17002.402,-17055.314,-17055.354,-17003.26,-16934.766,-16953.03,-16979.857,-16931.02,-16897.195,-16924.242,-16946.623,-16957.352,-16945.451,-16925.758,-16932.61,-16951.0,-16970.242,-16984.336,-16986.002,-16965.875,-16965.771,-16996.855,-17020.438,-17023.371
-17014.729,-16982.67,-16943.11,-16970.7,-16934.64,-16803.77,-16774.223,-16836.71,-16943.707,-17026.484,-17030.861,-17027.305,-16978.543,-16897.604,-16900.463,-16970.275,-17015.104,-16987.38,-16912.053,-16861.15,-16820.646,-16783.693,-16827.623,-16859.338,-16878.244
-17032.42,-17121.32,-17083.541,-17076.066,-16972.559,-16874.805,-16885.613,-16802.81,-16738.947,-16831.791,-16934.76,-16939.443,-16881.268,-16826.035,-16831.39,-16908.127,-16910.406,-16882.162,-16938.133,-16999.664,-17034.734,-16998.217,-16980.223,-16985.639,-16895.08
-16845.982,-16853.742,-16838.195,-16815.908,-16832.309,-16891.576,-16868.465,-16810.527,-16814.92,-16803.309,-16759.244,-16725.22,-16724.133,-16757.443,-16785.855,-16850.81,-17016.768,-17198.92,-17268.756,-17194.46,-17057.895,-16889.824,-16717.014,-16693.209,-16766.588
-16810.664,-16878.33,-16915.541,-16868.33,-16841.494,-16869.574,-16886.908,-16915.662,-16908.107,-16781.531,-16722.783,-16745.293,-16774.78,-16914.938,-17000.002,-16973.736,-16925.229,-16815.203,-16805.18,-16890.379,-16934.209,-16983.47,-16945.738,-16879.582,-16900.355
-16876.512,-16865.092,-16881.502,-16860.225,-16862.793,-16868.57,-16877.086,-16834.285,-16781.305,-16846.826,-16945.182,-17029.385,-17108.627,-17109.645,-16986.865,-16873.238,-16834.586,-16784.586,-16815.156,-16857.084,-16810.705,-16829.191,-16863.871,-16879.355,-16906.754
-16895.361,-16884.113,-16837.896,-16795.74,-16798.744,-16775.63,-16786.213,-16851.057,-16943.203,-16991.996,-16946.264,-16901.266,-16885.057,-16902.127,-16950.365,-16973.928,-17016.459,-17045.285,-16917.97,-16800.598,-16840.492,-16912.979,-16968.777,-16931.31,-16849.424
-16826.803,-16822.652,-16823.225,-16795.043,-16775.02,-16801.596,-16892.807,-16956.348,-16857.754,-16796.44,-16926.541,-17063.3,-17025.207,-16968.783,-17015.18,-16973.809,-16860.807,-16788.93,-16748.86,-16744.549,-16750.182,-16782.31,-16844.361,-16902.666,-16930.3
-16932.324,-16934.852,-16906.129,-16879.32,-16875.346,-16880.627,-16925.158,-16958.395,-16942.629,-16881.006,-16848.162,-16894.3,-16916.541,-16937.0,-16951.16,-16871.309,-16790.363,-16757.129,-16767.096,-16824.996,-16871.895,-16925.518,-16959.99,-16943.82,-16929.633
-16875.504,-16844.465,-16854.473,-16823.854,-16861.72,-16886.027,-16846.068,-16846.455,-16824.176,-16819.924,-16833.02,-16899.959,-17029.744,-17057.457,-17042.914,-16988.475,-16918.584,-16924.139,-16908.895,-16879.924,-16825.412,-16824.11,-16918.082,-16909.154,-16853.982
-16823.01,-16810.479,-16828.902,-16804.527,-16833.277,-16900.818,-16917.375,-16957.406,-17002.285,-16995.318,-16925.723,-16830.32,-16843.828,-16946.527,-16911.314,-16852.455,-16901.975,-16873.293,-16853.773,-16892.123,-16934.95,-16985.285,-16916.79,-16859.18,-16877.645
-16829.13,-16755.059,-16740.207,-16796.234,-16829.293,-16834.523,-16906.635,-17019.742,-17097.879,-17092.678,-17015.158,-16946.287,-16976.387,-17023.506,-16945.896,-16825.873,-16784.336,-16774.482,-16777.7,-16845.617,-16869.205,-16828.605,-16827.94,-16805.592,-16800.652
-16879.605,-16944.49,-16941.314,-16905.816,-16928.953,-16988.736,-16934.35,-16793.154,-16734.746,-16793.11,-16903.527,-17006.645,-17034.875,-16966.28,-16858.955,-16813.09,-16874.08,-16911.582,-16842.533,-16802.61,-16829.705,-16894.826,-16949.686,-16904.527,-16879.826
-16919.26,-16970.52,-17023.654,-16966.451,-16910.814,-16928.365,-16877.479,-16859.344,-16863.475,-16820.13,-16864.35,-16927.154,-16936.764,-16900.805,-16848.182,-16857.293,-16829.9,-16842.498,-16943.326,-16954.691,-16941.885,-16926.639,-16901.45,-16962.02,-17029.072
-17001.611,-16894.3,-16855.113,-16933.404,-16971.264,-16991.023,-16995.84,-16874.639,-16839.941,-16928.098,-16941.004,-16962.49,-16974.906,-16936.908,-16881.098,-16813.07,-16786.67,-16779.633,-16843.145,-16930.004,-16980.16,-16990.375,-16944.334,-16935.55,-16882.885
-16868.008,-16915.795,-16879.523,-16953.412,-17062.426,-17041.379,-16958.018,-16827.193,-16764.553,-16782.195,-16778.01,-16768.734,-16822.062,-16945.07,-17043.09,-16987.81,-16880.617,-16927.1,-16955.346,-16877.434,-16882.738,-16929.666,-16956.346,-16957.371,-16893.156
-16861.441,-16889.55,-16876.176,-16869.324,-16900.959,-16870.45,-16851.773,-16951.293,-17008.74,-16944.572,-16954.453,-17027.814,-17009.781,-16990.229,-16962.283,-16854.525,-16804.488,-16803.44,-16773.49,-16770.998,-16799.328,-16859.334,-16904.623,-16884.234,-16878.14
-16880.69,-16846.406,-16867.717,-16941.787,-16955.115,-16926.354,-16909.496,-16979.084,-17045.223,-16918.928,-16873.896,-16979.367,-16950.234,-16899.38,-16887.068,-16920.277,-16993.201,-16921.473,-16845.658,-16844.924,-16824.205,-16836.453,-16884.584,-16956.955,-16961.807
-16894.883,-16833.906,-16785.205,-16854.895,-16977.484,-17035.78,-17066.77,-17025.104,-16927.32,-16893.709,-16918.053,-16921.832,-16935.969,-16938.441,-16883.717,-16897.338,-16964.434,-16928.889,-16834.898,-16799.86,-16805.055,-16813.523,-16830.793,-16842.363,-16872.344
-16945.752,-17015.586,-17018.092,-16993.56,-17010.615,-17005.484,-16977.209,-16949.709,-16891.5,-16870.3,-16869.629,-16841.236,-16811.004,-16824.168,-16896.262,-16903.227,-16926.94,-17004.457,-16968.553,-16971.906,-16991.07,-16927.799,-16943.441,-16956.031,-16931.05
-16902.658,-16844.754,-16861.537,-16950.674,-17018.7,-17027.037,-16979.64,-16870.17,-16791.52,-16826.754,-16884.096,-16920.896,-16909.77,-16877.389,-16884.734,-16975.645,-17065.246,-16977.824,-16913.936,-16918.99,-16867.943,-16881.037,-16893.615,-16905.008,-16934.994
-16913.113,-16918.57,-16921.938,-16891.018,-16891.84,-16900.986,-16869.633,-16853.625,-16901.723,-16970.125,-16950.945,-16821.846,-16791.059,-16898.67,-16959.062,-16896.84,-16800.95,-16806.97,-16900.406,-16994.736,-16998.666,-17001.941,-17083.22,-17075.924,-17041.635
-17015.418,-16907.967,-16833.463,-16836.031,-16867.05,-16897.666,-16889.842,-16861.383,-16881.63,-16859.51,-16792.873,-16853.543,-16924.428,-16956.518,-17000.668,-16971.893,-16936.51,-16904.219,-16862.107,-16888.777,-16958.555,-17000.781,-17005.6,-17026.129,-17003.87
-16919.074,-16861.78,-16785.928,-16780.309,-16943.324,-17039.658,-16975.295,-16860.406,-16724.936,-16684.52,-16762.682,-16844.037,-16896.574,-16877.566,-16862.945,-16918.275,-16964.283,-16989.406,-16936.082,-16839.314,-16851.172,-16917.475,-16949.646,-16993.438,-17026.312
-16993.012,-16972.533,-17031.865,-17096.752,-17039.691,-16876.17,-16735.945,-16672.346,-16705.762,-16838.723,-16970.928,-16995.043,-16964.443,-16933.19,-16905.355,-16907.63,-16909.82,-16909.879,-16902.209,-16921.035,-16971.08,-17003.945,-17045.172,-17011.621,-16911.002
-16854.88,-16859.59,-16888.254,-16872.137,-16876.8,-16906.4,-16908.324,-16903.168,-16862.81,-16889.729,-16936.78,-16843.652,-16859.594,-17041.172,-17088.361,-17005.045,-16898.629,-16843.494,-16880.812,-16927.871,-16963.572,-16996.25,-17051.113,-17035.846,-16941.982
-16903.799,-16861.887,-16858.822,-16863.615,-16830.285,-16868.68,-16878.229,-16855.652,-16832.383,-16818.828,-16851.633,-16860.74,-16911.857,-17033.908,-17161.857,-17124.598,-16940.457,-16895.033,-16908.834,-16902.154,-16897.494,-16865.672,-16891.367,-16931.63,-16956.758
-16942.102,-16915.252,-16930.719,-16892.64,-16861.746,-16836.205,-16811.459,-16917.104,-16995.791,-16968.78,-16945.213,-16914.842,-16914.271,-16923.352,-16879.367,-16838.16,-16835.672,-16859.871,-16863.89,-16888.05,-17000.152,-17032.287,-16947.904,-16935.213,-16947.502
-16901.672,-16868.46,-16890.518,-16951.3,-16985.895,-16978.814,-16961.81,-16945.979,-16902.14,-16856.768,-16897.95,-16931.898,-16917.504,-16922.455,-16901.14,-16913.719,-16950.361,-16915.291,-16905.006,-16931.598,-16912.826,-16899.37,-16899.602,-16916.021,-17054.572
-17146.775,-17022.604,-16921.545,-16907.53,-16847.686,-16798.494,-16809.564,-16872.26,-16982.506,-17031.398,-16945.863,-16850.834,-16845.523,-16900.812,-16929.582,-16891.178,-16882.375,-16960.078,-17018.668,-16962.32,-16862.828,-16812.31,-16830.516,-16904.588,-16958.338
-16956.66,-16941.662,-16916.8,-16858.23,-16835.377,-16899.885,-16943.568,-16901.258,-16856.193,-16887.523,-16956.799,-16988.295,-16965.984,-16903.979,-16843.023,-16825.285,-16857.213,-16895.979,-16932.238,-16979.504,-17007.723,-17061.555,-17088.096,-16999.72,-16912.648
-16846.436,-16802.254,-16814.125,-16804.258,-16814.922,-16808.943,-16763.572,-16881.18,-17077.898,-17127.342,-17021.402,-16909.68,-16940.586,-16944.46,-16829.406,-16771.459,-16794.84,-16862.057,-16956.555,-17027.53,-16990.906,-16934.078,-16960.7,-16933.34,-16881.883
-16844.492,-16824.766,-16873.662,-16882.285,-16911.098,-16929.934,-16833.598,-16815.39,-16919.51,-16988.209,-16980.527,-16991.213,-16989.152,-16927.34,-16949.912,-17032.81,-17045.035,-16968.1,-16870.895,-16827.549,-16816.7,-16847.877,-16889.557,-16939.79,-17003.172
-16946.973,-16848.928,-16819.459,-16828.812,-16891.057,-16919.58,-16891.29,-16903.473,-16975.61,-17030.771,-17038.283,-17028.361,-16907.838,-16835.637,-16948.594,-16961.672,-16935.275,-16972.562,-16910.316,-16853.62,-16848.328,-16851.74,-16891.326,-16902.7,-16900.014
-16913.727,-16898.236,-16866.238,-16851.162,-16858.459,-16885.338,-16900.85,-16925.443,-16980.285,-16989.693,-16995.879,-17028.475,-16979.125,-16875.627,-16784.49,-16764.918,-16846.664,-16889.121,-16876.469,-16930.36,-16991.219,-16982.617,-16983.69,-16981.938,-16873.217
-16778.273,-16843.19,-16899.38,-16866.598,-16915.879,-17004.818,-17002.562,-16976.71,-16979.73,-16972.17,-16933.203,-16885.379,-16884.01,-16920.521,-16925.104,-16929.182,-16939.012,-16906.629,-16894.457,-16906.154,-16881.934,-16826.041,-16806.443,-16858.46,-16869.107
-16842.227,-16858.475,-16899.516,-16967.566,-16979.914,-16967.277,-17000.604,-16943.102,-16865.008,-16884.357,-16936.41,-16986.51,-16988.324,-16981.1,-16967.443,-16937.908,-16965.127,-16936.498,-16871.24,-16859.9,-16861.154,-16892.568,-16894.865,-16904.105,-16922.744
-16917.848,-16974.41,-17044.975,-17079.934,-17017.453,-16963.848,-16967.746,-16905.324,-16888.152,-16855.773,-16823.04,-16870.324,-16901.027,-16952.18,-16943.291,-16891.09,-16863.633,-16855.236,-16886.836,-16885.656,-16888.133,-16904.98,-16939.344,-16937.39,-16884.746
-16906.625,-16942.418,-17004.686,-17025.848,-16957.756,-16924.684,-16902.01,-16968.027,-17057.918,-17068.53,-17047.873,-16926.975,-16800.637,-16751.812,-16757.512,-16846.264,-16970.814,-17016.494,-16938.555,-16921.154,-16965.445,-16918.807,-16891.5,-16904.402,-16931.271
-16976.791,-16973.951,-16951.947,-16896.15,-16804.19,-16824.436,-17027.506,-17137.262,-16984.275,-16855.863,-16872.678,-16929.668,-16957.256,-16953.617,-16928.89,-16880.482,-16886.082,-16866.312,-16844.62,-16889.607,-16924.504,-17004.094,-17031.143,-16962.242,-16861.932
-16773.03,-16809.607,-16891.602,-16987.47,-17021.908,-16901.475,-16838.43,-16928.828,-17043.842,-17066.844,-16998.014,-16897.342,-16854.557,-16900.186,-16917.77,-16918.889,-16953.277,-16967.645,-16950.832,-16885.916,-16830.273,-16891.342,-16970.805,-16934.799,-16835.668
-16796.053,-16845.936,-16854.963,-16866.125,-16963.648,-16985.938,-17016.803,-17078.607,-16989.67,-16877.514,-16803.104,-16800.588,-16897.842,-16933.064,-16942.287,-16959.295,-16984.502,-17011.035,-16963.104,-16928.582,-16887.72,-16866.145,-16909.805,-16871.38,-16806.176
-16814.807,-16871.91,-16890.42,-16875.594,-16931.027,-17011.395,-17040.457,-16979.049,-16962.299,-17011.143,-16971.996,-16932.639,-16910.104,-16889.45,-16849.016,-16808.6,-16845.54,-16826.547,-16832.135,-16910.256,-16942.5,-16921.895,-16823.656,-16798.45,-16913.678
-17028.475,-17069.691,-17082.463,-17060.324,-16920.516,-16837.426,-16899.05,-16926.236,-16890.271,-16888.379,-16916.564,-16913.297,-16930.43,-16962.09,-16947.822,-16922.475,-16903.053,-16921.54,-16966.238,-16935.014,-16830.158,-16762.406,-16764.643,-16783.334,-16810.18
-16885.871,-16973.043,-16977.436,-16911.504,-16842.703,-16841.824,-16950.127,-17049.29,-17058.83,-17035.873,-17001.959,-17007.658,-17022.916,-16938.389,-16849.428,-16808.383,-16818.828,-16922.674,-16948.1,-16880.367,-16842.648,-16841.588,-16916.742,-16920.824,-16837.75
-16866.51,-16887.193,-16879.607,-16972.582,-16999.385,-16911.299,-16853.12,-16825.05,-16810.166,-16836.916,-16895.81,-16916.432,-16882.518,-16891.256,-16930.465,-16952.252,-16952.225,-16936.719,-16984.398,-17057.055,-17073.764,-16996.64,-16929.59,-17002.336,-16961.656
-16826.174,-16836.145,-16834.412,-16800.246,-16818.107,-16883.076,-16938.139,-16927.064,-16937.436,-16911.469,-16854.484,-16858.277,-16861.896,-16864.883,-16893.285,-16917.291,-16901.352,-16920.77,-16963.977,-16945.17,-16891.94,-16797.588,-16804.172,-16892.65,-16903.8
-16944.34,-16923.156,-16839.795,-16896.332,-16975.184,-16995.266,-16998.988,-16958.834,-16933.871,-16954.408,-16909.27,-16811.707,-16805.44,-16859.984,-16906.523,-16971.549,-16980.244,-16892.053,-16836.834,-16885.865,-16943.006,-16911.504,-16877.52,-16918.72,-16944.121
-16924.105,-16889.912,-16862.715,-16861.25,-16835.28,-16821.32,-16884.654,-16974.83,-17050.332,-17044.621,-17022.688,-17018.256,-16887.465,-16807.21,-16848.338,-16873.46,-16939.78,-16982.865,-16979.79,-16964.885,-16936.314,-16902.549,-16878.11,-16904.13,-16886.234
-16861.336,-16859.865,-16847.41,-16876.807,-16887.24,-16901.855,-16914.291,-16921.24,-16944.197,-16921.182,-16936.166,-16939.525,-16888.19,-16877.357,-16846.752,-16872.812,-16993.607,-16988.22,-16889.94,-16861.494,-16861.816,-16891.904,-16937.115,-16947.727,-16962.11
-16985.303,-16994.482,-16892.795,-16772.057,-16814.846,-16845.15,-16844.64,-16951.996,-17034.629,-17006.139,-16972.1,-16963.012,-16875.766,-16818.71,-16920.58,-17023.637,-16988.059,-16911.646,-16886.062,-16845.91,-16891.053,-16944.588,-16870.707,-16850.445,-16831.578
-16845.19,-16924.605,-16941.61,-16967.629,-16959.81,-16936.453,-16931.627,-16949.01,-16982.666,-16940.338,-16920.596,-16871.176,-16791.584,-16799.355,-16822.135,-16880.777,-16942.25,-16949.719,-16929.285,-16932.15,-16977.186,-17007.361,-17015.156,-16962.424,-16891.904
-16868.203,-16864.936,-16917.143,-16996.697,-16981.705,-16918.406,-16925.998,-16888.604,-16819.336,-16820.477,-16809.201,-16807.727,-16844.842,-16930.736,-16979.146,-16942.135,-16916.746,-16858.725,-16884.697,-17029.098,-17081.574,-17000.846,-16915.037,-16923.393,-16903.387
-16868.924,-16869.07,-16881.592,-17000.766,-17033.748,-16951.242,-16945.059,-16925.123,-16902.13,-16902.193,-16862.639,-16844.473,-16855.143,-16866.154,-16884.588,-16900.426,-16961.273,-17045.49,-17008.514,-16899.252,-16864.207,-16863.514,-16922.184,-17025.137,-16990.09
-16947.193,-16957.414,-16898.56,-16942.947,-16985.271,-16888.846,-16847.56,-16834.924,-16856.984,-16927.104,-16935.844,-16909.799,-16885.375,-16874.604,-16878.047,-16946.129,-17001.006,-16925.088,-16897.717,-16927.674,-16911.451,-16906.623,-16885.652,-16877.654,-16884.879
-16859.3,-16864.459,-16917.91,-16981.428,-16979.125,-16926.648,-16873.04,-16770.832,-16787.396,-16980.783,-17046.072,-16980.322,-16957.799,-16928.193,-16901.488,-16881.41,-16884.309,-16948.473,-16961.693,-16947.877,-16952.82,-16952.793,-16934.018,-16858.209,-16827.781
-16849.459,-16887.04,-16926.053,-16897.234,-16873.762,-16893.076,-16982.777,-17056.633,-17002.148,-16949.592,-16916.037,-16890.715,-16896.883,-16895.941,-16885.092,-16885.873,-16922.723,-16913.197,-16895.867,-16919.896,-16895.686,-16876.316,-16870.322,-16850.334,-16791.393
-16725.438,-16808.816,-16934.215,-16991.943,-17001.014,-16919.82,-16872.76,-16914.797,-16971.688,-17022.74,-17018.621,-16975.432,-16931.53,-16877.682,-16852.455,-16885.809,-16909.8,-16902.838,-16909.154,-16854.418,-16799.053,-16877.826,-16913.707,-16871.594,-16878.285
-16874.438,-16893.986,-16904.205,-16865.861,-16904.514,-16964.092,-16955.182,-16910.525,-16920.977,-16960.855,-16889.28,-16811.094,-16834.314,-16863.75,-16850.453,-16819.064,-16818.393,-16859.887,-16891.21,-16899.604,-16928.383,-16970.855,-16978.473,-16948.41,-16900.432
-16861.262,-16892.8,-16934.809,-16883.863,-16863.469,-16877.984,-16837.297,-16843.896,-16865.994,-16877.527,-16905.441,-16924.795,-16982.568,-16977.834,-16919.451,-16930.889,-16897.508,-16816.725,-16840.244,-16914.13,-16935.033,-16950.584,-16912.676,-16856.318,-16887.42
-16850.586,-16806.037,-16847.922,-16871.977,-16930.777,-16951.08,-16893.55,-16838.842,-16788.71,-16775.21,-16802.324,-16875.426,-16929.63,-17002.258,-17083.236,-16999.562,-16909.648,-16938.545,-16993.803,-16975.746,-16881.838,-16874.89,-16874.535,-16805.379,-16820.402
-16916.79,-16939.004,-16850.52,-16787.424,-16807.299,-16892.957,-16956.707,-16915.578,-16862.016,-16848.629,-16867.076,-16919.348,-16967.297,-16954.121,-16923.713,-16930.594,-16914.672,-16919.531,-16957.69,-16951.197,-16907.555,-16864.047,-16844.607,-16816.922,-16790.22
-16789.969,-16815.178,-16838.27,-16813.074,-16808.883,-16860.979,-16913.28,-16903.088,-16870.19,-16893.127,-16882.45,-16871.672,-16958.268,-17009.717,-16981.285,-16942.98,-16871.154,-16823.287,-16851.172,-16880.96,-16888.043,-16879.516,-16892.303,-16879.236,-16843.63
-16927.094,-16949.633,-16860.65,-16893.344,-16927.494,-16873.088,-16844.914,-16872.084,-16922.207,-16923.137,-16923.158,-16981.807,-17003.537,-16949.615,-16915.13,-16888.346,-16809.5,-16811.762,-16885.125,-16893.602,-16884.607,-16879.084,-16855.08,-16846.736,-16871.918
-16870.78,-16841.674,-16832.654,-16853.438,-16957.273,-17024.197,-16976.988,-16925.0,-16848.87,-16779.004,-16761.43,-16789.943,-16851.799,-16877.908,-16935.97,-17045.326,-17080.545,-17001.66,-16916.523,-16960.87,-16991.193,-16914.047,-16907.895,-16946.682,-16929.137
-16914.094,-16941.225,-16984.951,-16983.14,-16890.266,-16809.057,-16826.37,-16846.965,-16881.934,-16940.256,-16937.617,-16881.307,-16780.701,-16770.893,-16868.979,-16887.691,-16887.213,-16948.893,-16986.055,-16957.496,-16911.967,-16901.105,-16926.797,-16969.703,-16979.902
-16955.666,-16926.652,-16931.625,-16989.943,-16988.973,-16923.863,-16905.232,-16910.904,-16863.879,-16789.434,-16789.162,-16805.816,-16787.605,-16822.45,-16868.81,-16876.836,-16892.053,-16932.28,-16920.666,-16867.717,-16921.951,-16998.635,-17001.26,-16998.797,-16965.389
-16891.041,-16849.822,-16903.059,-16975.195,-16960.14,-16886.076,-16840.877,-16870.375,-16896.246,-16943.734,-17027.23,-17011.518,-16971.545,-16941.256,-16860.29,-16814.19,-16795.219,-16783.854,-16845.031,-16934.955,-16952.045,-16921.25,-16891.383,-16854.11,-16829.254
-16824.818,-16852.062,-16878.387,-16905.984,-16962.875,-16992.879,-17053.137,-17075.844,-16950.469,-16895.855,-16994.98,-17074.248,-17053.62,-16945.496,-16804.95,-16784.676,-16850.018,-16822.436,-16848.861,-16922.047,-16902.41,-16930.383,-16963.459,-16949.258,-16949.06
-16953.7,-16917.229,-16859.275,-16927.244,-16987.178,-16926.709,-16825.623,-16764.715,-16845.373,-16874.502,-16865.848,-16932.664,-16961.312,-16978.354,-16930.02,-16905.533,-16949.182,-16955.473,-16990.414,-16971.55,-16924.395,-16908.605,-16882.332,-16927.473,-16961.92
-16914.207,-16830.412,-16774.943,-16860.58,-16957.072,-16928.195,-16902.354,-16914.066,-16915.477,-16925.367,-16924.273,-16899.62,-16876.725,-16860.023,-16889.422,-16953.457,-16934.037,-16870.736,-16846.16,-16849.922,-16880.11,-16886.188,-16927.537,-17013.514,-16997.062
-16919.486,-16886.764,-16877.158,-16849.377,-16846.486,-16905.635,-16948.994,-16944.57,-16953.361,-16933.1,-16832.05,-16794.143,-16875.674,-16983.484,-17031.592,-16922.04,-16795.508,-16818.756,-16885.727,-16911.607,-16896.436,-16899.68,-16962.29,-16976.59,-16926.143
-16886.232,-16841.234,-16822.389,-16872.32,-16948.627,-17004.178,-17006.822,-16984.824,-16982.906,-16958.582,-16911.113,-16890.396,-16874.932,-16888.46,-16889.307,-16867.229,-16926.527,-16923.982,-16866.695,-16912.867,-16953.969,-16947.395,-16933.377,-16965.86,-17038.5
-17037.393,-16950.807,-16860.895,-16877.688,-16931.838,-16920.037,-16940.188,-16930.436,-16847.748,-16859.24,-16899.816,-16899.91,-16884.098,-16849.572,-16909.465,-16931.85,-16884.96,-16899.398,-16855.621,-16861.008,-16909.912,-16863.176,-16850.447,-16847.016,-16842.29
-16881.74,-16909.277,-16912.691,-16880.572,-16849.012,-16861.09,-16906.273,-16919.932,-16880.188,-16872.375,-16906.916,-16943.127,-16947.922,-16892.48,-16828.756,-16806.852,-16796.44,-16814.033,-16934.414,-17045.781,-17043.725,-17062.867,-17055.533,-16908.7,-16813.803
-16866.541,-16930.965,-16931.537,-16906.27,-16906.006,-16883.023,-16836.607,-16859.768,-16883.547,-16878.041,-16886.969,-16833.705,-16819.555,-16877.125,-16867.322,-16841.834,-16850.422,-16871.387,-16858.299,-16834.447,-16833.738,-16876.926,-17014.074,-17099.229,-17136.006
-17123.648,-16985.883,-16890.66,-16812.8,-16776.904,-16833.459,-16855.611,-16867.41,-16845.285,-16826.242,-16872.121,-16908.854,-16923.62,-16963.36,-17027.855,-16962.068,-16841.756,-16905.484,-16976.354,-16899.78,-16827.938,-16825.207,-16899.51,-16988.217,-16961.992
-16927.756,-16919.277,-16832.318,-16798.594,-16892.555,-17023.637,-17044.035,-16940.107,-16912.068,-16910.932,-16856.057,-16839.25,-16833.385,-16815.512,-16812.457,-16856.34,-16904.098,-16911.756,-16941.918,-16960.713,-16954.031,-16950.928,-16954.23,-16981.662,-16964.357
-16899.734,-16846.277,-16849.424,-16895.248,-16892.727,-16894.34,-16895.45,-16862.787,-16923.492,-16992.28,-16918.396,-16861.838,-16928.992,-16972.463,-16945.365,-16917.965,-16879.957,-16829.596,-16834.988,-16881.975,-16879.297,-16858.992,-16843.852,-16838.783,-16900.365
-16937.977,-16966.348,-17020.172,-17011.38,-17025.145,-17020.137,-16921.885,-16841.734,-16804.672,-16774.451,-16741.793,-16758.576,-16811.295,-16857.72,-16893.982,-16885.684,-16853.223,-16825.383,-16844.287,-16900.424,-16953.48,-17020.465,-17047.719,-16957.312,-16861.459
-16912.482,-16909.441,-16785.656,-16770.525,-16823.082,-16891.275,-16969.574,-16976.604,-16944.791,-16943.686,-16978.139,-16965.38,-16897.85,-16835.633,-16809.11,-16837.389,-16854.812,-16845.113,-16860.457,-16897.107,-16945.959,-16952.254,-16888.13,-16884.81,-16984.521
-17035.148,-16946.07,-16818.926,-16797.658,-16845.486,-16876.512,-16901.924,-16937.566,-16948.914,-16917.48,-16870.936,-16799.56,-16805.28,-16905.975,-16920.299,-16883.121,-16881.19,-16881.924,-16844.584,-16814.98,-16870.861,-16924.992,-16955.988,-16996.152,-17033.557
-17045.672,-16973.303,-16899.928,-16880.158,-16872.781,-16862.678,-16856.521,-16866.795,-16834.346,-16797.367,-16804.479,-16812.25,-16825.715,-16854.035,-16877.693,-16874.006,-16931.83,-17050.178,-17068.137,-17022.125,-16996.596,-16955.412,-16911.91,-16885.969,-16888.465
-16903.91,-16869.568,-16872.326,-16939.408,-16975.297,-17015.99,-17034.37,-16984.178,-16899.797,-16841.355,-16852.076,-16865.361,-16839.035,-16818.162,-16855.645,-16874.35,-16857.252,-16850.467,-16822.016,-16875.932,-16952.139,-16975.854,-16999.66,-16975.715,-16987.209
-16964.643,-16859.223,-16840.756,-16874.615,-16876.139,-16894.541,-16947.646,-16927.146,-16892.98,-16904.918,-16918.66,-17000.447,-16997.75,-16904.332,-16902.908,-16904.254,-16869.94,-16859.521,-16861.887,-16821.016,-16795.508,-16865.04,-16926.973,-16930.846,-16918.123
-16954.805,-17017.254,-16975.943,-16870.756,-16847.807,-16925.375,-16990.357,-17016.152,-16992.754,-16923.02,-16906.875,-16877.145,-16834.033,-16834.215,-16845.723,-16880.367,-16865.125,-16862.996,-16914.559,-16923.52,-16906.947,-16873.5,-16867.705,-16873.592,-16878.662
-16954.268,-17041.408,-17047.152,-16926.424,-16852.18,-16913.229,-16891.537,-16872.898,-16922.92,-16935.39,-16996.393,-17018.77,-17008.139,-16999.17,-16897.29,-16833.207,-16764.885,-16732.129,-16818.955,-16888.61,-16975.898,-16947.512,-16870.822,-16915.197,-16923.678
-16977.121,-16982.184,-16890.63,-16900.186,-16905.744,-16909.266,-16936.92,-16934.59,-16961.502,-17019.176,-17050.176,-16969.082,-16844.123,-16807.297,-16841.55,-16900.09,-16923.865,-16884.865,-16837.453,-16832.727,-16881.895,-16969.78,-17032.041,-17026.016,-16950.766
-16813.328,-16753.709,-16842.297,-16913.184,-16868.502,-16860.09,-16969.752,-16983.168,-16913.229,-16899.113,-16860.064,-16821.863,-16822.654,-16913.475,-17021.191,-16983.283,-16898.396,-16845.357,-16880.523,-16917.283,-16873.75,-16892.23,-16908.098,-16898.498,-16923.035
-16970.227,-17021.178,-16977.922,-16936.05,-17004.338,-17021.436,-16895.932,-16819.596,-16844.883,-16867.84,-16921.426,-16888.123,-16829.922,-16909.994,-16964.469,-16933.48,-16848.49,-16831.057,-16938.219,-17033.611,-17060.29,-16964.252,-16840.244,-16797.832,-16838.578
-16925.97,-16938.045,-16921.81,-16928.1,-16923.527,-16926.875,-16907.541,-16882.37,-16886.365,-16881.904,-16886.244,-16910.12,-16911.564,-16898.416,-16851.605,-16837.51,-16929.617,-16979.709,-16950.414,-16939.133,-16918.014,-16904.107,-16943.334,-16915.9,-16850.244
-16844.162,-16803.172,-16809.336,-16888.432,-16930.682,-16965.623,-17013.74,-17078.957,-17055.76,-16963.96,-16880.316,-16787.49,-16793.611,-16825.385,-16859.395,-16921.727,-16934.045,-16977.697,-16988.775,-16977.521,-17000.904,-16984.44,-16998.445,-16979.256,-16922.463
-16903.744,-16861.572,-16855.04,-16857.643,-16811.621,-16766.19,-16761.162,-16851.607,-16952.305,-16979.686,-16964.918,-16951.887,-16967.133,-16968.848,-16978.322,-16964.697,-16928.762,-16996.172,-17019.953,-16922.908,-16880.23,-16861.12,-16880.65,-17036.457,-17145.008
-17051.664,-16878.166,-16789.244,-16806.172,-16845.074,-16836.605,-16795.748,-16818.332,-16864.28,-16875.715,-16925.264,-16956.8,-16947.553,-16925.447,-16862.527,-16853.96,-16908.176,-16937.482,-16975.248,-17004.629,-16974.86,-16932.338,-16916.004,-16959.066,-16966.12
-16894.654,-16904.598,-16943.668,-16955.451,-16942.627,-16893.44,-16900.111,-16889.307,-16874.137,-16920.762,-16917.773,-16854.646,-16819.336,-16846.014,-16896.246,-16946.285,-16942.303,-16902.8,-16901.615,-16872.68,-16854.998,-16905.344,-16930.88,-16943.766,-16953.248
-16916.791,-16926.436,-16969.041,-16931.508,-16870.158,-16870.842,-16898.438,-16890.398,-16882.904,-16904.648,-16934.729,-16962.95,-16971.797,-16942.252,-16868.564,-16870.365,-16940.42,-16918.438,-16886.096,-16898.908,-16867.812,-16856.1,-16902.645,-16954.812,-16998.262
-16939.967,-16861.318,-16900.37,-16917.291,-16916.951,-16926.25,-16905.523,-16905.262,-16894.36,-16920.809,-16955.146,-16952.955,-16970.855,-16926.775,-16875.727,-16897.812,-16898.963,-16878.71,-16846.943,-16797.17,-16811.66,-16876.098,-16923.062,-16970.115,-16989.166
-16971.254,-16949.035,-16934.607,-16949.908,-16958.973,-16965.416,-16948.818,-16884.936,-16888.18,-16922.861,-16903.127,-16882.377,-16885.62,-16892.135,-16885.365,-16884.47,-16878.137,-16882.678,-16912.332,-16937.766,-16970.424,-16954.24,-16924.645,-16960.459,-16969.98
-16901.639,-16826.984,-16823.07,-16841.693,-16841.963,-16876.99,-16922.666,-16951.78,-16984.004,-17018.615,-17032.46,-17003.117,-16958.982,-16918.88,-16868.098,-16839.053,-16839.158,-16881.746,-16961.402,-16953.5,-16922.895,-16924.004,-16886.865,-16927.04,-16961.664
-16905.518,-16897.668,-16934.436,-16952.158,-16918.316,-16905.26,-16915.898,-16906.617,-16937.621,-16951.898,-16942.713,-16921.322,-16889.205,-16892.148,-16862.613,-16864.627,-16912.63,-16889.562,-16876.303,-16891.596,-16903.73,-16933.268,-16921.455,-16870.492,-16814.068
-16830.338,-16917.566,-16936.086,-16926.566,-16889.775,-16854.375,-16945.05,-16950.158,-16865.502,-16906.418,-16983.322,-17063.291,-17092.309,-17051.795,-17017.035,-16935.664,-16871.34,-16814.562,-16771.352,-16811.21,-16869.389,-16968.037,-17007.795,-16949.838,-16909.299
-16863.465,-16825.62,-16797.832,-16777.844,-16811.107,-16874.002,-16923.861,-16974.582,-16980.727,-16929.969,-16926.541,-16975.566,-17105.71,-17174.906,-17087.803,-17064.672,-16980.936,-16833.152,-16855.27,-16887.51,-16839.533,-16811.742,-16828.842,-16885.748,-16953.469
-16949.436,-16905.764,-16910.957,-16887.025,-16834.535,-16825.926,-16878.754,-16925.818,-16923.934,-16961.25,-16978.129,-16978.963,-16976.537,-16900.465,-16877.12,-16900.53,-16925.031,-16953.557,-16935.502,-16937.889,-16944.055,-16942.584,-17007.123,-17075.91,-17039.426
-16903.89,-16795.094,-16780.28,-16842.05,-16963.969,-17066.86,-17057.719,-16962.582,-16916.54,-16909.645,-16850.29,-16839.541,-16870.875,-16878.57,-16906.928,-16918.102,-16924.5,-16895.094,-16833.918,-16848.17,-16875.688,-16902.936,-16998.36,-17067.105,-17023.074
-16960.21,-16889.945,-16860.887,-16936.914,-16926.365,-16924.17,-16992.46,-16958.871,-16921.582,-16904.014,-16942.268,-16975.578,-16885.799,-16851.512,-16851.31,-16843.615,-16902.951,-16955.996,-16969.473,-16944.816,-16903.361,-16899.635,-16937.703,-16960.91,-16965.371
-16957.422,-16918.584,-16939.467,-16987.107,-16948.479,-16934.75,-16984.88,-16986.629,-16972.16,-16977.504,-16959.527,-16916.258,-16872.213,-16876.611,-16891.771,-16885.873,-16914.312,-16934.264,-16928.01,-16916.617,-16883.16,-16889.389,-16923.766,-16915.746,-16911.074
-16921.324,-16926.082,-16940.336,-16964.617,-16973.432,-16940.408,-16953.746,-16971.482,-16904.436,-16903.086,-16938.723,-16942.256,-16971.568,-16983.555,-16976.018,-16933.07,-16928.867,-16945.736,-16845.795,-16807.992,-16869.814,-16902.043,-16929.537,-16940.814,-16964.045
-16997.607,-16966.463,-16895.543,-16867.184,-16851.402,-16842.535,-16884.879,-16880.838,-16861.057,-16908.742,-16965.447,-16997.47,-16976.758,-16940.87,-16961.316,-17046.14,-17108.63,-17056.549,-16951.46,-16869.777,-16823.164,-16806.873,-16824.635,-16828.934,-16796.139
-16846.988,-16952.457,-17004.037,-17047.377,-17063.635,-17013.672,-16939.775,-16849.36,-16808.346,-16872.219,-16902.055,-16865.008,-16874.26,-16944.373,-17043.504,-17070.701,-17030.27,-16969.83,-16855.855,-16834.775,-16911.04,-16959.496,-16963.426,-16897.312,-16859.303
-16815.252,-16795.676,-16956.344,-17081.008,-17052.785,-16954.326,-16862.283,-16856.611,-16879.125,-16897.36,-16871.494,-16873.977,-16960.986,-17015.264,-17050.14,-17002.633,-16907.316,-16923.69,-16916.842,-16867.025,-16884.594,-16878.717,-16873.902,-16905.902,-16878.254
-16876.803,-16921.053,-16961.564,-17013.48,-16960.932,-16901.758,-16928.287,-16893.98,-16882.232,-16936.984,-16918.646,-16875.164,-16881.81,-16916.414,-16993.746,-17062.492,-17045.273,-17008.057,-17012.262,-16941.254,-16820.557,-16838.424,-16852.31,-16795.875,-16810.602
-16831.037,-16865.488,-16897.883,-16902.945,-16947.146,-16947.016,-16918.453,-16937.88,-16972.752,-16984.87,-16985.773,-17002.324,-16989.217,-16963.521,-16923.926,-16871.236,-16879.232,-16875.33,-16847.934,-16846.42,-16847.895,-16872.441,-16868.836,-16844.162,-16844.453
-16847.637,-16926.266,-16997.355,-16965.998,-17004.117,-17091.28,-17050.713,-16927.102,-16897.023,-16935.324,-16897.514,-16883.674,-16898.336,-16899.822,-16941.484,-16925.709,-16942.04,-17001.467,-16986.24,-16967.824,-16921.072,-16887.693,-16893.012,-16869.93,-16834.277
-16789.178,-16833.916,-16921.86,-16918.979,-16908.523,-16916.555,-16928.807,-16940.99,-16945.975,-16990.504,-17007.814,-16981.023,-16962.447,-16893.285,-16801.955,-16776.05,-16820.287,-16875.691,-16921.87,-16976.229,-16964.258,-16906.52,-16854.223,-16836.385,-16964.889
-17103.709,-17057.984,-16925.078,-16852.941,-16827.043,-16838.477,-16939.023,-16978.39,-16933.352,-16913.115,-16851.328,-16818.432,-16856.746,-16921.453,-16977.088,-16982.266,-16979.16,-16942.477,-16918.104,-16889.756,-16855.885,-16896.63,-16883.65,-16858.916,-16890.146
-16921.662,-16936.674,-16894.51,-16869.998,-16866.402,-16826.646,-16793.244,-16861.871,-16989.36,-16998.861,-16959.932,-16956.281,-16953.125,-16950.43,-16929.082,-16936.844,-16957.809,-16912.188,-16849.834,-16862.62,-16913.342,-16958.871,-17029.535,-17061.65,-17029.428
-16950.133,-16858.287,-16833.219,-16841.266,-16862.928,-16854.615,-16812.084,-16829.383,-16850.123,-16864.232,-16884.809,-16880.686,-16918.242,-16955.643,-16943.904,-16930.213,-16914.377,-16914.656,-16931.217,-16918.848,-16903.908,-16887.879,-16841.477,-16833.135,-16837.406
-16824.355,-16852.09,-16845.65,-16840.8,-16923.164,-16970.82,-16959.68,-16985.488,-16960.822,-16829.816,-16804.281,-16900.793,-16959.367,-17012.943,-17042.312,-17013.32,-17010.76,-17024.674,-16987.686,-16921.234,-16858.818,-16797.488,-16767.16,-16792.193,-16830.004
-16841.36,-16825.607,-16800.566,-16824.045,-16894.75,-16951.668,-16960.074,-16946.197,-16965.428,-16936.701,-16869.158,-16843.36,-16840.598,-16913.248,-17005.275,-17045.2,-16967.486,-16822.73,-16849.152,-16882.363,-16826.973,-16837.396,-16849.686,-16887.85,-16939.947
-16943.652,-16922.469,-16915.828,-16986.943,-17005.86,-16921.076,-16860.918,-16822.824,-16799.775,-16815.22,-16868.812,-16927.371,-16962.709,-16977.682,-16929.656,-16892.47,-16872.74,-16815.584,-16868.791,-16942.922,-16903.81,-16845.713,-16812.463,-16836.145,-16854.045
-16882.348,-16913.81,-16879.06,-16898.346,-16893.36,-16856.88,-16862.926,-16817.857,-16829.518,-16874.422,-16894.35,-16920.342,-16868.652,-16854.012,-16896.398,-16913.992,-16942.615,-16929.2,-16878.688,-16847.982,-16870.248,-16927.08,-16968.27,-16959.973,-16862.322
-16804.13,-16845.16,-16865.451,-16860.908,-16853.564,-16844.748,-16879.066,-16975.52,-17025.797,-16974.084,-16945.818,-16938.436,-16926.484,-16921.793,-16856.629,-16810.059,-16839.375,-16872.816,-16866.383,-16878.236,-16923.51,-16868.975,-16829.12,-16890.297,-16920.418
-16933.707,-16931.846,-16918.195,-16876.283,-16848.467,-16878.531,-16829.854,-16783.812,-16810.102,-16847.459,-16868.887,-16829.357,-16830.115,-16851.566,-16882.252,-16966.8,-16980.312,-16923.383,-16846.36,-16855.355,-16955.773,-16981.861,-16952.896,-16902.174,-16872.225
-16875.19,-16870.725,-16867.682,-16821.592,-16825.998,-16886.953,-16897.883,-16872.078,-16815.453,-16856.873,-16947.658,-16914.596,-16884.932,-16918.346,-16915.56,-16869.168,-16859.475,-16859.66,-16808.938,-16805.648,-16846.26,-16889.55,-16943.318,-16924.727,-16904.268
-16936.604,-16944.424,-16964.91,-16950.365,-16891.713,-16868.078,-16814.914,-16801.271,-16868.6,-16884.885,-16853.924,-16802.098,-16766.568,-16799.633,-16859.184,-16895.17,-16870.533,-16861.078,-16952.121,-17038.285,-17003.053,-16868.951,-16773.834,-16808.07,-16841.537
-16822.28,-16872.846,-16909.46,-16869.678,-16832.566,-16814.252,-16870.258,-16942.076,-16963.326,-16952.967,-16911.723,-16900.771,-16890.36,-16888.783,-16893.033,-16831.447,-16790.281,-16792.348,-16808.969,-16845.756,-16911.715,-16967.934,-16951.365,-16943.512,-16934.56
-16905.139,-16910.746,-16926.69,-16947.94,-16934.826,-16856.438,-16755.01,-16767.79,-16878.238,-16897.986,-16880.88,-16877.645,-16856.082,-16837.01,-16835.506,-16875.113,-16905.406,-16920.727,-16912.621,-16876.05,-16867.04,-16866.61,-16874.066,-16856.393,-16804.361
-16801.611,-16829.838,-16831.162,-16823.875,-16818.332,-16803.55,-16817.037,-16837.918,-16886.523,-17002.578,-17041.229,-17010.871,-17021.88,-17072.055,-17119.13,-17047.938,-16932.096,-16879.543,-16821.371,-16768.67,-16761.389,-16782.895,-16802.979,-16813.803,-16804.736
-16822.152,-16898.322,-16908.51,-16866.635,-16841.97,-16834.125,-16846.035,-16813.242,-16813.885,-16827.217,-16788.074,-16794.602,-16787.959,-16833.436,-16955.955,-17014.225,-17055.09,-17037.488,-16958.09,-16919.676,-16879.492,-16828.385,-16821.85,-16836.598,-16838.26
-16857.74,-16870.135,-16871.73,-16862.762,-16826.684,-16861.666,-16887.703,-16842.156,-16831.965,-16818.64,-16834.855,-16854.537,-16819.074,-16839.613,-16881.174,-16958.254,-17046.945,-17004.547,-16981.125,-17007.412,-16914.705,-16837.86,-16862.363,-16842.73,-16831.834
-16852.637,-16819.123,-16811.35,-16822.785,-16815.572,-16806.693,-16832.3,-16941.7,-16980.002,-16918.389,-16863.379,-16811.68,-16852.123,-16908.824,-16887.26,-16902.074,-16888.441,-16834.098,-16812.627,-16787.654,-16803.895,-16840.246,-16897.072,-16973.236,-16930.762
-16836.727,-16825.564,-16859.615,-16845.588,-16823.586,-16873.43,-16846.168,-16789.912,-16848.094,-16865.004,-16853.326,-16882.031,-16909.756,-16927.514,-16883.564,-16840.453,-16837.145,-16855.248,-16912.5,-16962.438,-16969.588,-16897.895,-16813.848,-16814.688,-16806.54
-16770.145,-16801.135,-16821.451,-16823.23,-16915.32,-17010.428,-17036.111,-16966.318,-16839.08,-16843.863,-16943.219,-16944.795,-16871.424,-16837.836,-16802.934,-16759.63,-16765.174,-16781.74,-16819.266,-16833.79,-16805.264,-16794.004,-16783.316,-16818.027,-16851.838
-16831.826,-16862.637,-16921.426,-16950.95,-16953.982,-16913.3,-16850.887,-16828.791,-16858.371,-16872.254,-16898.285,-16962.941,-17005.63,-16983.586,-16883.307,-16834.576,-16842.643,-16815.97,-16803.475,-16803.432,-16833.89,-16850.986,-16839.553,-16804.012,-16752.174
-16836.014,-16898.877,-16871.729,-16865.32,-16809.186,-16795.068,-16833.809,-16854.95,-16845.156,-16846.64,-16888.84,-16865.262,-16863.014,-16897.572,-16883.611,-16882.205,-16892.066,-16889.719,-16839.262,-16797.773,-16816.344,-16834.22,-16855.209,-16847.787,-16809.232
-16797.525,-16844.7,-16934.701,-16971.986,-16925.332,-16875.953,-16874.363,-16853.176,-16820.88,-16802.33,-16736.207,-16698.363,-16707.398,-16738.418,-16803.78,-16810.121,-16824.21,-16891.89,-16888.705,-16892.234,-16952.502,-16947.344,-16920.396,-16913.762,-16887.643
-16888.855,-16863.195,-16832.633,-16906.305,-16928.984,-16844.805,-16770.53,-16718.24,-16742.54,-16821.578,-16881.732,-16916.842,-16869.262,-16821.178,-16839.316,-16833.201,-16817.484,-16795.203,-16773.467,-16780.979,-16777.82,-16784.184,-16796.854,-16810.396,-16837.021
-16845.752,-16867.564,-16882.191,-16859.232,-16867.898,-16894.096,-16913.734,-16893.227,-16788.184,-16779.408,-16899.805,-16954.984,-16941.512,-16870.264,-16788.436,-16787.758,-16808.137,-16848.61,-16905.145,-16923.094,-16915.158,-16903.605,-16913.697,-16894.727,-16832.084
-16782.39,-16775.535,-16805.783,-16789.752,-16780.402,-16801.672,-16782.762,-16827.52,-16933.988,-16985.123,-16974.242,-16945.666,-16872.172,-16778.69,-16761.828,-16779.576,-16826.98,-16848.371,-16820.043,-16842.38,-16839.521,-16844.646,-16900.668,-16899.906,-16853.887
-16823.678,-16858.31,-16933.906,-16954.438,-16859.861,-16763.152,-16765.463,-16808.936,-16929.113,-17030.783,-16994.707,-16929.684,-16847.03,-16805.742,-16862.762,-16856.502,-16778.543,-16773.031,-16840.53,-16872.193,-16836.73,-16810.209,-16818.852,-16849.453,-16887.8
-16886.83,-16851.312,-16829.094,-16823.736,-16812.396,-16813.967,-16831.447,-16841.008,-16843.604,-16821.002,-16824.617,-16852.748,-16857.236,-16909.793,-16925.246,-16874.309,-16867.242,-16840.877,-16836.566,-16905.516,-16912.988,-16835.842,-16805.84,-16834.61,-16799.336
-16754.432,-16770.81,-16783.209,-16811.484,-16886.85,-16959.75,-16972.44,-16950.207,-16918.945,-16863.34,-16820.021,-16787.178,-16765.37,-16762.797,-16765.11,-16783.922,-16789.828,-16775.203,-16787.348,-16878.135,-16976.396,-16962.867,-16909.502,-16863.66,-16831.377
-16832.637,-16741.422,-16634.668,-16688.363,-16748.805,-16748.816,-16790.943,-16820.818,-16816.379,-16820.365,-16830.11,-16862.617,-16887.504,-16855.354,-16818.25,-16796.969,-16772.55,-16841.85,-16941.969,-16893.771,-16796.596,-16732.834,-16710.996,-16786.947,-16837.531
-16847.518,-16913.15,-16940.646,-16884.352,-16810.418,-16763.037,-16751.281,-16765.53,-16829.816,-16912.773,-16910.094,-16871.047,-16885.986,-16843.734,-16727.547,-16699.04,-16780.11,-16832.361,-16810.168,-16842.145,-16898.385,-16865.094,-16822.59,-16776.09,-16724.355
-16755.855,-16780.924,-16743.363,-16738.756,-16777.074,-16836.79,-16913.81,-16974.463,-16980.334,-16949.412,-16920.363,-16855.023,-16820.102,-16839.12,-16807.95,-16818.35,-16853.832,-16841.918,-16869.338,-16855.646,-16795.418,-16767.74,-16755.992,-16789.305,-16774.768
-16712.592,-16725.785,-16734.807,-16758.754,-16855.936,-16925.037,-16962.617,-16969.586,-16918.854,-16888.406,-16886.7,-16854.564,-16810.629,-16778.982,-16774.33,-16769.732,-16769.738,-16845.709,-16890.781,-16865.023,-16851.795,-16854.656,-16899.672,-16894.979,-16858.1
-16862.469,-16826.234,-16814.627,-16823.26,-16800.643,-16777.783,-16778.959,-16828.533,-16845.361,-16864.158,-16878.129,-16829.791,-16821.719,-16816.344,-16803.37,-16799.564,-16758.484,-16735.703,-16767.979,-16853.27,-16887.047,-16885.014,-16945.021,-16934.227,-16885.785
-16878.598,-16885.041,-16966.52,-16993.047,-16919.365,-16875.53,-16832.357,-16780.229,-16753.557,-16739.271,-16740.361,-16758.408,-16748.547,-16774.855,-16857.951,-16862.246,-16839.16,-16855.953,-16860.934,-16806.715,-16748.262,-16779.06,-16785.535,-16736.617,-16706.953
-16745.895,-16876.055,-16957.49,-16987.363,-17009.756,-16942.748,-16818.4,-16729.176,-16734.473,-16748.107,-16710.395,-16742.652,-16816.768,-16832.324,-16804.566,-16768.57,-16765.537,-16824.309,-16894.162,-16853.795,-16786.459,-16815.035,-16852.473,-16907.158,-16913.73
-16833.426,-16809.44,-16800.35,-16822.055,-16883.746,-16878.361,-16851.531,-16854.9,-16865.467,-16826.734,-16797.78,-16832.861,-16856.695,-16871.256,-16888.832,-16903.287,-16875.607,-16834.398,-16846.234,-16812.457,-16798.94,-16878.564,-16858.361,-16771.316,-16761.508
-16795.074,-16823.383,-16779.488,-16746.982,-16797.771,-16829.06,-16856.084,-16881.018,-16878.68,-16855.547,-16808.885,-16819.479,-16878.613,-16888.016,-16855.732,-16825.688,-16776.363,-16775.264,-16866.205,-16908.695,-16873.25,-16814.068,-16746.621,-16753.848,-16859.662
-16917.037,-16870.178,-16857.87,-16881.281,-16885.025,-16878.031,-16826.951,-16794.62,-16808.0,-16803.424,-16784.924,-16776.666,-16780.959,-16779.53,-16810.428,-16869.408,-16877.576,-16864.574,-16842.133,-16789.154,-16785.768,-16802.768,-16741.303,-16710.389,-16786.344
-16904.188,-16972.916,-16874.512,-16768.799,-16796.287,-16778.656,-16744.174,-16815.766,-16904.951,-16896.854,-16839.582,-16869.805,-16918.498,-16892.805,-16836.664,-16778.922,-16757.1,-16756.766,-16730.203,-16700.506,-16736.902,-16818.576,-16843.79,-16847.586,-16890.25
-16925.225,-16909.875,-16885.492,-16897.938,-16904.693,-16861.887,-16765.674,-16725.42,-16792.879,-16847.367,-16870.97,-16894.684,-16858.848,-16774.6,-16787.486,-16852.633,-16836.22,-16789.656,-16759.236,-16802.572,-16858.182,-16831.783,-16804.898,-16800.586,-16781.53
-16768.957,-16781.965,-16754.928,-16737.738,-16776.805,-16819.31,-16890.135,-16905.027,-16905.836,-16958.354,-16924.5,-16856.65,-16834.424,-16806.008,-16766.674,-16731.54,-16703.203,-16764.012,-16904.541,-16943.584,-16947.645,-16988.416,-16925.309,-16831.648,-16788.205
-16747.092,-16756.752,-16803.113,-16806.957,-16798.91,-16796.223,-16771.838,-16768.893,-16778.283,-16768.324,-16767.037,-16789.244,-16833.658,-16834.389,-16800.55,-16795.186,-16785.05,-16788.576,-16804.953,-16794.943,-16804.195,-16841.36,-16856.172,-16890.547,-16936.605
-16882.586,-16838.96,-16884.902,-16881.627,-16826.691,-16771.998,-16741.12,-16764.89,-16806.781,-16814.264,-16794.9,-16800.965,-16810.979,-16805.848,-16825.146,-16821.334,-16768.611,-16757.473,-16794.213,-16824.514,-16843.424,-16839.102,-16809.791,-16766.854,-16809.303
-16936.111,-16956.734,-16903.816,-16867.027,-16806.094,-16755.951,-16730.885,-16732.322,-16773.82,-16805.062,-16802.504,-16803.252,-16816.328,-16811.21,-16802.166,-16821.28,-16822.71,-16788.615,-16768.385,-16786.879,-16843.355,-16854.895,-16829.23,-16831.648,-16790.945
-16779.17,-16828.178,-16809.625,-16773.172,-16786.021,-16823.105,-16855.232,-16846.127,-16804.127,-16799.635,-16826.945,-16820.775,-16839.383,-16876.842,-16838.152,-16771.055,-16756.305,-16761.06,-16767.309,-16789.664,-16773.816,-16768.16,-16784.164,-16749.545,-16751.668
-16801.635,-16853.705,-16885.97,-16825.47,-16759.436,-16756.902,-16758.104,-16794.412,-16820.625,-16806.281,-16834.82,-16850.287,-16828.727,-16806.086,-16810.525,-16856.932,-16893.262,-16908.686,-16868.92,-16835.432,-16807.783,-16723.154,-16729.623,-16773.791,-16747.326
-16741.346,-16792.717,-16871.54,-16892.234,-16835.867,-16797.723,-16814.299,-16820.307,-16807.223,-16800.664,-16778.984,-16780.174,-16826.43,-16807.5,-16718.371,-16731.545,-16776.533,-16791.701,-16866.967,-16877.873,-16869.85,-16889.822,-16821.814,-16784.334,-16838.861
-16876.734,-16828.148,-16722.967,-16664.559,-16740.31,-16870.945,-16932.467,-16959.732,-16918.314,-16811.287,-16737.139,-16726.684,-16761.5,-16776.557,-16799.72,-16793.48,-16733.625,-16727.438,-16743.232,-16766.814,-16826.986,-16878.219,-16864.316,-16807.38,-16786.488
-16803.291,-16862.264,-16890.877,-16845.305,-16835.102,-16816.848,-16775.924,-16794.336,-16793.502,-16770.666,-16779.158,-16772.562,-16782.057,-16825.932,-16833.432,-16796.174,-16733.39,-16689.232,-16710.447,-16720.74,-16749.023,-16827.559,-16820.27,-16823.395,-16884.477
-16876.125,-16848.275,-16829.17,-16829.928,-16848.023,-16868.824,-16884.285,-16851.25,-16811.498,-16769.258,-16764.84,-16796.834,-16800.96,-16805.879,-16785.385,-16776.543,-16766.752,-16743.953,-16776.477,-16800.053,-16811.502,-16790.764,-16774.086,-16825.906,-16819.29
-16811.506,-16879.656,-16891.443,-16847.79,-16833.41,-16825.896,-16801.717,-16770.59,-16744.326,-16757.121,-16810.088,-16873.56,-16902.2,-16867.42,-16804.324,-16770.068,-16777.172,-16810.537,-16844.785,-16822.791,-16815.809,-16875.535,-16890.89,-16871.143,-16863.531
-16807.455,-16721.465,-16705.062,-16739.844,-16786.059,-16842.553,-16858.434,-16833.32,-16794.684,-16780.35,-16779.086,-16757.244,-16770.871,-16816.738,-16814.443,-16768.434,-16770.477,-16783.943,-16771.19,-16777.084,-16773.104,-16787.244,-16807.611,-16825.613,-16864.176
-16847.02,-16821.396,-16840.188,-16833.938,-16824.56,-16847.074,-16847.9,-16863.635,-16872.229,-16768.162,-16701.107,-16753.402,-16826.93,-16880.93,-16834.8,-16736.639,-16732.35,-16820.28,-16862.33,-16804.012,-16760.379,-16762.947,-16801.678,-16830.717,-16805.137
-16812.72,-16829.45,-16842.031,-16884.639,-16896.322,-16865.37,-16828.912,-16891.816,-16969.365,-16885.291,-16805.854,-16833.432,-16823.318,-16739.13,-16703.914,-16761.455,-16810.83,-16827.256,-16807.531,-16761.682,-16751.164,-16726.803,-16674.133,-16664.008,-16746.004
-16897.576,-16937.855,-16851.729,-16836.357,-16849.67,-16807.367,-16805.459,-16818.352,-16793.33,-16791.498,-16813.566,-16819.074,-16810.078,-16845.361,-16896.77,-16872.225,-16813.36,-16759.082,-16725.549,-16727.57,-16730.203,-16741.498,-16773.62,-16794.297,-16791.756
-16812.025,-16808.002,-16751.275,-16769.223,-16839.447,-16873.291,-16880.258,-16850.928,-16820.22,-16844.29,-16871.664,-16826.154,-16763.18,-16749.455,-16724.82,-16667.812,-16672.68,-16720.906,-16738.758,-16789.62,-16859.254,-16888.184,-16889.504,-16856.398,-16822.174
-16811.432,-16804.414,-16817.408,-16888.117,-16955.477,-16925.37,-16851.166,-16818.742,-16809.443,-16787.902,-16807.385,-16833.713,-16795.863,-16755.46,-16710.377,-16698.979,-16782.713,-16879.748,-16869.822,-16774.66,-16761.188,-16777.744,-16814.254,-16922.838,-16914.602
-16818.875,-16756.213,-16749.27,-16791.484,-16798.807,-16817.027,-16844.91,-16859.105,-16919.855,-16954.877,-16939.643,-16910.436,-16816.41,-16769.666,-16827.154,-16806.523,-16730.482,-16669.248,-16666.393,-16757.453,-16796.67,-16817.105,-16791.646,-16680.643,-16725.502
-16850.264,-16848.787,-16780.037,-16749.006,-16770.674,-16764.51,-16771.66,-16844.695,-16904.807,-16928.494,-16912.201,-16879.934,-16863.943,-16850.488,-16851.775,-16818.852,-16769.154,-16771.066,-16768.45,-16794.451,-16840.031,-16847.246,-16864.65,-16839.902,-16797.598
-16786.432,-16746.732,-16713.025,-16720.049,-16761.557,-16774.936,-16767.281,-16804.26,-16809.023,-16766.271,-16711.227,-16721.826,-16826.117,-16901.686,-16965.096,-16960.09,-16853.943,-16774.959,-16731.014,-16788.682,-16854.105,-16826.027,-16870.938,-16903.201,-16826.494
-16771.537,-16798.273,-16847.994,-16871.266,-16913.166,-16858.734,-16714.086,-16706.143,-16706.57,-16667.672,-16727.537,-16744.62,-16725.629,-16765.916,-16840.344,-16923.484,-16902.693,-16821.738,-16754.05,-16707.057,-16760.56,-16802.824,-16752.936,-16766.77,-16837.482
-16810.566,-16790.947,-16871.652,-16888.322,-16820.33,-16779.791,-16805.025,-16820.834,-16793.955,-16809.254,-16827.605,-16820.148,-16804.977,-16783.473,-16784.08,-16795.36,-16854.6,-16883.752,-16815.984,-16767.342,-16713.662,-16660.072,-16704.275,-16771.207,-16755.264
-16728.994,-16773.512,-16793.768,-16777.477,-16800.572,-16845.412,-16870.203,-16833.37,-16789.127,-16823.742,-16878.703,-16885.676,-16865.096,-16795.24,-16735.824,-16781.186,-16811.273,-16754.498,-16679.002,-16690.01,-16775.912,-16804.37,-16818.275,-16813.184,-16788.982
-16823.215,-16808.361,-16782.412,-16831.355,-16799.104,-16732.473,-16753.943,-16719.797,-16703.096,-16787.531,-16774.127,-16742.768,-16821.932,-16910.004,-16923.986,-16839.113,-16764.506,-16766.582,-16805.105,-16831.1,-16767.93,-16733.186,-16793.504,-16793.95,-16787.666
-16838.17,-16825.635,-16742.07,-16676.824,-16688.305,-16744.988,-16771.473,-16797.1,-16850.441,-16864.727,-16822.402,-16743.582,-16673.205,-16641.273,-16685.652,-16857.008,-16954.281,-16905.91,-16867.365,-16812.945,-16787.354,-16805.65,-16801.201,-16821.496,-16841.615
-16819.803,-16747.287,-16673.406,-16679.518,-16772.727,-16906.418,-16909.38,-16812.898,-16809.424,-16758.27,-16653.846,-16658.098,-16658.08,-16642.02,-16670.393,-16699.836,-16744.95,-16791.756,-16794.5,-16765.709,-16759.41,-16755.574,-16754.703,-16855.342,-16988.877
-17009.578,-16929.799,-16832.812,-16766.709,-16702.492,-16647.828,-16666.531,-16714.484,-16741.629,-16770.604,-16772.148,-16760.0,-16774.307,-16788.662,-16816.566,-16815.486,-16794.484,-16817.299,-16790.123,-16753.252,-16737.363,-16679.738,-16670.629,-16664.668,-16654.074
-16744.076,-16872.29,-16958.463,-16947.766,-16912.146,-16915.982,-16845.223,-16746.594,-16689.324,-16636.047,-16668.078,-16733.395,-16782.1,-16917.504,-16968.773,-16854.928,-16747.65,-16673.922,-16671.875,-16721.27,-16759.865,-16786.309,-16722.008,-16660.88,-16742.97
-16838.621,-16876.559,-16912.916,-16869.086,-16736.11,-16670.314,-16711.756,-16753.867,-16746.037,-16738.441,-16762.326,-16798.72,-16786.225,-16735.156,-16701.035,-16684.705,-16749.092,-16838.816,-16845.508,-16790.904,-16690.719,-16638.62,-16673.463,-16729.955,-16773.785
-16786.766,-16804.553,-16840.402,-16882.744,-16927.844,-16969.83,-16913.703,-16799.344,-16775.547,-16689.549,-16647.281,-16752.139,-16743.621,-16705.43,-16677.012,-16668.008,-16779.883,-16840.635,-16830.861,-16768.924,-16679.56,-16725.54,-16790.424,-16765.682,-16757.328
-16751.775,-16737.281,-16766.05,-16805.902,-16817.43,-16839.543,-16859.201,-16776.09,-16704.219,-16722.594,-16702.55,-16726.078,-16811.486,-16845.955,-16841.826,-16787.916,-16771.873,-16840.018,-16865.305,-16801.12,-16669.785,-16619.371,-16740.297,-16837.947,-16847.162
