0.0,-6329.499,-19441.6,-17529.932,-10457.605,-20150.092,-17836.434,-13155.251,-20369.771,-15410.844,-17493.123,-19822.867,-16377.456,-21057.3,-18346.434,-19733.92,-20633.06,-18420.975,-20921.174,-18262.637,-19309.47,-18579.367,-17387.836,-18406.355,-16454.334
-17612.164,-16704.688,-16879.785,-17509.674,-16952.703,-18247.357,-17857.365,-18761.354,-19036.791,-19095.041,-19754.865,-19315.463,-19732.031,-19285.879,-19108.615,-18898.426,-18285.545,-18198.352,-17600.729,-17507.81,-17270.213,-17130.09,-17290.668,-17273.207,-17653.824
-17851.625,-18217.99,-18583.254,-18824.543,-19152.123,-19235.799,-19366.287,-19315.248,-19186.13,-19006.076,-18682.023,-18438.814,-18114.777,-17858.139,-17640.191,-17476.52,-17443.791,-17439.738,-17568.984,-17751.107,-17993.645,-18274.816,-18530.53,-18788.076,-18981.516
-19126.326,-19182.58,-19157.951,-19064.994,-18895.906,-18705.025,-18463.756,-18221.309,-18010.076,-17838.467,-17737.396,-17677.87,-17691.848,-17781.688,-17924.926,-18109.428,-18307.271,-18522.512,-18717.984,-18869.775,-18977.229,-19019.416,-19003.924,-18924.895,-18794.982
-18638.854,-18451.457,-18268.723,-18115.838,-17983.111,-17889.113,-17851.436,-17869.842,-17936.012,-18043.223,-18182.758,-18338.166,-18498.604,-18642.53,-18756.734,-18837.67,-18866.05,-18845.186,-18788.33,-18700.15,-18587.195,-18452.758,-18316.137,-18190.72,-18093.324
-18041.76,-18018.213,-18023.496,-18069.045,-18147.793,-18246.814,-18352.043,-18462.195,-18560.441,-18641.01,-18707.865,-18741.113,-18733.727,-18688.596,-18621.863,-18539.945,-18438.67,-18341.451,-18259.715,-18195.885,-18160.553,-18147.125,-18147.27,-18173.809,-18227.799
-18292.453,-18363.139,-18439.111,-18511.893,-18567.105,-18607.455,-18625.246,-18608.025,-18575.656,-18527.93,-18473.547,-18426.557,-18370.574,-18318.271,-18281.94,-18251.387,-18231.006,-18233.98,-18256.041,-18283.115,-18324.135,-18377.39,-18420.43,-18450.992,-18475.895
-18490.3,-18497.025,-18498.742,-18479.703,-18447.889,-18419.367,-18390.139,-18354.752,-18314.889,-18298.225,-18298.836,-18281.363,-18270.139,-18287.025,-18304.404,-18316.957,-18336.086,-18353.186,-18369.719,-18384.094,-18392.088,-18402.736,-18406.205,-18402.635,-18399.826
-18385.408,-18369.58,-18369.922,-18376.826,-18383.605,-18387.59,-18384.04,-18386.893,-18394.291,-18393.234,-18393.21,-18394.387,-18396.803,-18397.219,-18390.48,-18390.861,-18394.271,-18391.865,-18389.826,-18395.08,-18401.416,-18401.363,-18409.373,-18424.19,-18437.293
-18443.527,-18441.117,-18442.479,-18439.188,-18430.365,-18419.88,-18408.055,-18404.55,-18387.697,-18359.812,-18355.318,-18366.97,-18366.787,-18365.95,-18386.133,-18405.742,-18425.115,-18453.05,-18473.164,-18492.316,-18506.498,-18508.914,-18507.727,-18502.557,-18494.744
-18482.668,-18459.855,-18435.324,-18415.283,-18387.467,-18371.672,-18374.562,-18369.752,-18374.492,-18400.559,-18432.51,-18463.82,-18494.295,-18526.387,-18554.73,-18575.955,-18580.088,-18567.244,-18554.719,-18539.998,-18524.805,-18513.64,-18492.871,-18460.377,-18427.164
-18398.43,-18386.875,-18400.145,-18418.105,-18438.408,-18468.225,-18497.28,-18529.959,-18563.943,-18588.158,-18606.322,-18618.861,-18619.516,-18600.152,-18562.176,-18527.703,-18503.258,-18478.383,-18459.277,-18434.307,-18403.049,-18396.52,-18406.273,-18419.729,-18438.936
-18461.629,-18494.053,-18527.684,-18560.703,-18594.523,-18618.076,-18630.049,-18633.795,-18627.084,-18599.492,-18563.53,-18534.389,-18502.283,-18470.498,-18441.97,-18419.879,-18415.887,-18416.332,-18424.652,-18463.559,-18506.129,-18538.494,-18578.715,-18618.182,-18650.742
-18671.479,-18679.855,-18680.164,-18670.344,-18655.387,-18629.566,-18594.043,-18557.53,-18520.83,-18491.342,-18475.512,-18468.092,-18469.94,-18489.834,-18518.762,-18548.715,-18580.766,-18616.32,-18646.062,-18669.309,-18700.28,-18711.44,-18698.963,-18687.33,-18666.984
-18635.81,-18602.586,-18579.791,-18556.582,-18526.84,-18504.912,-18491.305,-18493.697,-18501.047,-18518.197,-18547.453,-18565.365,-18597.41,-18639.482,-18664.826,-18685.451,-18692.432,-18684.344,-18671.43,-18644.908,-18612.87,-18584.832,-18558.873,-18539.045,-18515.646
-18487.621,-18469.838,-18467.025,-18481.244,-18496.707,-18511.658,-18541.834,-18573.877,-18601.611,-18625.453,-18640.22,-18648.635,-18654.404,-18657.152,-18640.465,-18611.365,-18582.756,-18549.46,-18523.623,-18492.807,-18468.67,-18474.67,-18471.832,-18471.576,-18488.307
-18501.025,-18532.08,-18565.627,-18581.979,-18596.344,-18606.629,-18611.812,-18607.713,-18596.04,-18578.758,-18555.35,-18529.309,-18506.312,-18489.336,-18460.713,-18434.553,-18428.238,-18429.371,-18438.627,-18448.627,-18464.947,-18485.582,-18496.281,-18510.629,-18524.154
-18541.777,-18563.736,-18562.963,-18550.564,-18537.576,-18516.06,-18490.643,-18472.273,-18454.213,-18425.494,-18408.25,-18402.643,-18398.203,-18407.168,-18425.2,-18447.7,-18463.33,-18474.273,-18492.883,-18509.11,-18525.336,-18530.092,-18519.818,-18510.186,-18494.775
-18478.371,-18461.8,-18446.328,-18438.25,-18428.912,-18419.98,-18409.846,-18405.738,-18416.19,-18428.559,-18443.945,-18464.834,-18481.54,-18494.582,-18515.303,-18535.361,-18534.918,-18523.725,-18508.746,-18490.863,-18486.996,-18480.066,-18454.73,-18437.814,-18426.004
-18412.904,-18414.781,-18413.547,-18407.36,-18409.143,-18409.48,-18422.488,-18448.68,-18469.291,-18483.158,-18491.977,-18494.504,-18485.52,-18477.145,-18467.271,-18447.729,-18438.494,-18432.348,-18422.838,-18414.965,-18403.553,-18403.148,-18406.658,-18398.67,-18400.031
-18411.375,-18418.195,-18425.203,-18430.072,-18438.756,-18449.354,-18447.512,-18442.742,-18434.775,-18422.549,-18408.672,-18396.006,-18397.314,-18389.98,-18369.11,-18361.734,-18359.834,-18358.992,-18365.496,-18368.2,-18365.508,-18366.625,-18369.395,-18372.03,-18381.33
-18404.686,-18428.07,-18426.201,-18420.297,-18420.268,-18406.16,-18399.23,-18402.436,-18397.816,-18389.072,-18380.047,-18378.855,-18379.865,-18377.44,-18379.693,-18387.752,-18401.453,-18412.164,-18415.48,-18423.768,-18438.455,-18443.01,-18438.242,-18432.035,-18418.666
-18410.42,-18402.465,-18391.666,-18399.383,-18403.041,-18399.184,-18406.248,-18406.299,-18400.846,-18404.037,-18412.086,-18415.822,-18418.96,-18424.16,-18427.031,-18427.717,-18416.602,-18407.408,-18414.82,-18420.195,-18415.549,-18410.867,-18409.564,-18406.787,-18407.426
-18402.059,-18395.035,-18402.775,-18406.314,-18406.387,-18404.375,-18405.705,-18418.664,-18415.514,-18410.107,-18417.443,-18413.838,-18403.531,-18401.73,-18406.738,-18409.828,-18409.59,-18408.678,-18408.904,-18404.549,-18393.072,-18389.857,-18387.932,-18381.748,-18386.25
-18391.523,-18397.246,-18406.502,-18403.66,-18396.938,-18398.533,-18404.896,-18408.982,-18404.266,-18401.03,-18405.637,-18404.459,-18401.746,-18400.713,-18393.584,-18393.75,-18400.932,-18401.154,-18396.03,-18396.473,-18398.385,-18392.072,-18389.309,-18387.693,-18392.967
-18409.531,-18416.043,-18415.361,-18409.19,-18405.838,-18405.2,-18393.918,-18388.656,-18390.002,-18398.518,-18400.676,-18385.383,-18382.484,-18382.828,-18387.354,-18400.38,-18396.285,-18394.178,-18395.83,-18391.646,-18396.637,-18396.258,-18390.508,-18390.45,-18390.459
-18394.42,-18395.416,-18395.184,-18400.785,-18405.12,-18410.945,-18412.451,-18409.734,-18408.95,-18407.344,-18409.086,-18405.746,-18399.004,-18401.205,-18404.746,-18400.555,-18387.152,-18382.139,-18393.045,-18399.066,-18401.814,-18408.02,-18408.752,-18406.28,-18405.885
-18412.764,-18418.39,-18410.928,-18406.332,-18409.643,-18412.078,-18411.193,-18405.475,-18402.492,-18405.521,-18413.002,-18411.375,-18403.207,-18409.506,-18410.21,-18404.184,-18405.482,-18406.096,-18411.562,-18408.117,-18399.682,-18406.625,-18417.383,-18418.14,-18409.338
-18412.246,-18419.963,-18420.004,-18422.986,-18419.633,-18417.213,-18420.0,-18420.584,-18418.938,-18407.2,-18398.0,-18401.176,-18412.967,-18427.578,-18434.928,-18434.771,-18430.062,-18431.379,-18435.438,-18431.504,-18431.115,-18429.518,-18423.256,-18429.64,-18436.512
-18435.541,-18437.34,-18435.469,-18435.492,-18438.168,-18437.541,-18442.207,-18444.88,-18444.943,-18451.896,-18458.836,-18458.582,-18455.258,-18452.16,-18449.771,-18447.896,-18437.773,-18432.334,-18437.334,-18431.736,-18429.41,-18436.324,-18439.273,-18442.572,-18448.633
-18457.375,-18457.566,-18458.037,-18469.621,-18468.865,-18456.389,-18452.193,-18454.512,-18451.436,-18449.066,-18453.488,-18451.72,-18441.004,-18433.484,-18438.27,-18445.354,-18439.568,-18430.305,-18433.008,-18436.09,-18435.668,-18442.037,-18446.516,-18449.934,-18450.754
-18451.172,-18458.887,-18458.273,-18453.936,-18452.346,-18447.88,-18441.535,-18437.756,-18436.674,-18428.895,-18431.002,-18437.592,-18435.293,-18439.234,-18435.992,-18430.555,-18430.117,-18426.121,-18430.348,-18432.438,-18425.732,-18419.889,-18421.826,-18431.48,-18433.422
-18427.426,-18420.574,-18418.705,-18421.45,-18420.781,-18423.53,-18426.336,-18427.178,-18432.195,-18434.098,-18433.043,-18430.148,-18431.156,-18437.78,-18436.861,-18438.633,-18449.96,-18449.172,-18440.701,-18445.547,-18444.35,-18432.152,-18433.764,-18432.805,-18422.645
-18418.873,-18414.08,-18412.271,-18415.941,-18415.566,-18410.482,-18409.041,-18413.914,-18416.527,-18417.164,-18414.465,-18416.592,-18418.99,-18406.775,-18403.4,-18404.322,-18400.908,-18407.22,-18406.459,-18401.867,-18406.824,-18413.65,-18411.47,-18402.94,-18404.88
-18403.783,-18393.338,-18392.166,-18400.092,-18405.098,-18398.621,-18394.932,-18391.62,-18380.639,-18381.91,-18385.166,-18386.49,-18387.64,-18381.803,-18386.81,-18393.068,-18396.398,-18398.486,-18389.912,-18389.09,-18390.729,-18383.797,-18382.168,-18390.625,-18396.12
-18393.443,-18390.89,-18387.656,-18391.084,-18390.373,-18379.975,-18376.57,-18374.95,-18378.648,-18385.816,-18390.1,-18389.71,-18387.36,-18387.594,-18382.312,-18381.658,-18375.06,-18365.16,-18372.168,-18378.496,-18384.137,-18387.988,-18386.688,-18385.021,-18373.16
-18357.615,-18357.426,-18362.895,-18357.549,-18361.457,-18369.967,-18366.465,-18363.822,-18360.992,-18355.646,-18348.074,-18344.152,-18342.87,-18335.684,-18331.396,-18328.207,-18330.373,-18341.482,-18348.678,-18351.812,-18346.777,-18338.205,-18341.133,-18341.875,-18337.727
-18342.92,-18342.934,-18338.562,-18342.064,-18342.623,-18342.848,-18342.213,-18334.332,-18330.012,-18330.37,-18332.814,-18334.086,-18327.963,-18329.418,-18333.783,-18322.9,-18317.652,-18326.18,-18329.09,-18326.027,-18324.742,-18320.625,-18317.096,-18314.264,-18310.373
-18318.094,-18323.81,-18327.732,-18340.664,-18345.26,-18342.514,-18340.676,-18343.895,-18337.564,-18322.541,-18316.848,-18307.66,-18305.545,-18303.7,-18291.564,-18289.598,-18285.562,-18284.69,-18296.564,-18307.143,-18309.61,-18305.482,-18299.643,-18293.037,-18298.621
-18294.44,-18274.568,-18272.582,-18274.139,-18276.385,-18275.984,-18270.125,-18270.943,-18265.57,-18269.62,-18275.1,-18264.576,-18252.041,-18240.332,-18241.135,-18235.086,-18215.922,-18206.9,-18200.586,-18199.934,-18195.164,-18185.832,-18194.338,-18199.443,-18186.752
-18177.533,-18179.611,-18178.512,-18169.414,-18165.068,-18172.242,-18173.256,-18158.752,-18156.004,-18161.271,-18155.904,-18150.525,-18145.7,-18140.111,-18134.883,-18136.127,-18138.3,-18131.457,-18129.16,-18124.893,-18121.988,-18130.559,-18133.818,-18127.79,-18119.822
-18123.652,-18128.836,-18126.686,-18133.133,-18136.633,-18134.19,-18128.635,-18122.684,-18123.29,-18116.582,-18111.932,-18117.693,-18125.6,-18135.33,-18147.08,-18162.303,-18163.422,-18152.62,-18148.246,-18147.156,-18153.117,-18158.986,-18158.47,-18159.412,-18160.979
-18159.36,-18153.045,-18156.197,-18170.232,-18176.316,-18174.078,-18175.477,-18180.969,-18181.047,-18182.459,-18188.568,-18194.541,-18201.064,-18195.305,-18192.504,-18204.076,-18201.227,-18198.854,-18208.414,-18207.812,-18211.914,-18218.213,-18216.623,-18224.773,-18230.855
-18232.48,-18240.367,-18241.443,-18232.955,-18225.135,-18229.082,-18240.87,-18250.902,-18254.28,-18250.518,-18251.39,-18253.64,-18255.965,-18257.729,-18258.812,-18261.53,-18253.576,-18252.678,-18258.352,-18259.293,-18263.215,-18261.59,-18266.078,-18271.512,-18276.506
-18282.021,-18274.068,-18271.182,-18265.3,-18263.412,-18278.816,-18282.988,-18277.867,-18275.232,-18277.393,-18279.164,-18276.404,-18280.602,-18288.209,-18289.932,-18291.482,-18294.934,-18292.236,-18291.994,-18297.06,-18293.553,-18287.252,-18282.252,-18276.611,-18282.121
-18294.63,-18292.354,-18287.768,-18298.75,-18302.4,-18298.02,-18301.846,-18305.94,-18308.373,-18311.354,-18315.535,-18314.273,-18307.584,-18314.783,-18324.16,-18323.574,-18328.143,-18334.955,-18343.568,-18344.12,-18331.076,-18328.012,-18324.348,-18318.852,-18322.133
-18320.926,-18330.58,-18343.658,-18342.006,-18343.7,-18342.012,-18331.326,-18327.754,-18327.484,-18329.506,-18333.51,-18325.24,-18319.152,-18320.705,-18320.35,-18330.242,-18335.668,-18331.092,-18330.855,-18335.27,-18334.52,-18318.246,-18314.92,-18325.332,-18331.893
-18338.959,-18335.521,-18338.674,-18342.018,-18331.469,-18326.191,-18318.56,-18320.945,-18330.295,-18330.697,-18338.7,-18340.521,-18339.178,-18342.55,-18330.176,-18318.379,-18317.684,-18321.453,-18330.596,-18329.6,-18325.541,-18331.178,-18330.662,-18327.465,-18330.832
-18334.695,-18339.232,-18338.701,-18332.771,-18336.02,-18343.955,-18343.525,-18337.232,-18338.123,-18347.945,-18348.56,-18343.328,-18343.475,-18346.008,-18347.85,-18340.85,-18334.602,-18335.393,-18335.832,-18333.18,-18322.814,-18318.32,-18320.434,-18316.16,-18312.596
-18312.812,-18313.715,-18314.148,-18318.488,-18324.707,-18326.898,-18328.012,-18325.576,-18324.105,-18323.936,-18320.262,-18320.695,-18323.342,-18326.785,-18331.803,-18329.482,-18321.775,-18318.531,-18317.979,-18319.29,-18326.23,-18328.15,-18323.22,-18324.438,-18325.902
-18320.447,-18322.873,-18329.129,-18325.525,-18327.395,-18327.375,-18319.873,-18321.852,-18319.102,-18315.947,-18320.75,-18321.553,-18325.162,-18331.79,-18347.512,-18369.713,-18379.787,-18383.436,-18385.51,-18389.84,-18398.19,-18399.002,-18389.639,-18380.918,-18375.293
-18362.668,-18360.81,-18373.203,-18371.385,-18363.654,-18359.05,-18355.16,-18364.174,-18374.781,-18369.72,-18358.885,-18346.268,-18333.35,-18335.764,-18350.906,-18361.459,-18355.719,-18350.002,-18354.27,-18343.922,-18337.408,-18346.799,-18346.47,-18344.082,-18342.377
-18336.613,-18330.424,-18331.463,-18339.36,-18338.723,-18340.564,-18339.797,-18331.771,-18327.836,-18315.145,-18314.822,-18327.672,-18330.12,-18336.553,-18342.018,-18343.0,-18343.293,-18339.648,-18339.535,-18344.15,-18347.547,-18347.082,-18348.666,-18340.568,-18331.133
-18339.047,-18339.775,-18332.969,-18326.113,-18325.9,-18340.4,-18342.504,-18336.05,-18334.512,-18335.232,-18340.494,-18333.893,-18321.998,-18324.746,-18332.53,-18339.725,-18348.314,-18351.89,-18350.035,-18353.938,-18360.125,-18358.564,-18364.701,-18376.18,-18375.324
-18372.006,-18370.5,-18370.188,-18374.324,-18370.4,-18364.953,-18374.2,-18378.885,-18374.807,-18377.352,-18383.121,-18390.58,-18391.902,-18385.477,-18379.156,-18369.057,-18360.053,-18353.414,-18352.158,-18370.527,-18386.223,-18379.615,-18371.963,-18366.975,-18367.719
-18376.201,-18372.701,-18370.768,-18383.635,-18390.045,-18386.123,-18387.305,-18388.857,-18382.832,-18383.34,-18386.684,-18383.26,-18380.633,-18374.322,-18365.79,-18363.207,-18364.93,-18371.258,-18378.086,-18380.28,-18378.518,-18378.441,-18386.303,-18393.83,-18392.217
-18384.629,-18381.025,-18389.07,-18393.95,-18392.17,-18398.428,-18401.371,-18396.096,-18395.322,-18398.588,-18401.36,-18402.89,-18405.889,-18408.248,-18406.762,-18406.883,-18409.61,-18412.172,-18412.248,-18415.344,-18420.596,-18410.338,-18406.066,-18419.266,-18422.76
-18422.857,-18415.723,-18408.105,-18410.883,-18400.334,-18404.158,-18427.383,-18431.334,-18432.934,-18439.05,-18437.809,-18444.176,-18452.287,-18450.582,-18451.475,-18454.021,-18451.488,-18452.19,-18459.467,-18466.162,-18468.049,-18461.344,-18453.914,-18457.725,-18461.219
-18458.646,-18454.443,-18458.379,-18469.9,-18470.68,-18478.613,-18496.912,-18502.99,-18507.629,-18510.117,-18507.627,-18510.3,-18506.477,-18501.648,-18515.568,-18529.885,-18532.97,-18534.402,-18535.176,-18545.27,-18551.47,-18546.57,-18548.326,-18549.38,-18554.734
-18557.686,-18552.812,-18562.127,-18568.26,-18563.99,-18560.309,-18558.793,-18569.01,-18575.785,-18577.39,-18587.797,-18593.928,-18592.49,-18585.596,-18579.14,-18580.771,-18579.498,-18583.955,-18593.762,-18591.95,-18590.875,-18593.117,-18595.053,-18599.488,-18601.254
-18608.598,-18617.984,-18612.191,-18603.984,-18610.666,-18622.016,-18625.725,-18623.473,-18627.586,-18632.258,-18624.162,-18626.441,-18635.582,-18638.352,-18650.521,-18656.143,-18660.617,-18671.633,-18674.602,-18680.154,-18677.266,-18673.299,-18683.123,-18686.506,-18691.537
-18704.217,-18712.127,-18716.04,-18716.047,-18715.441,-18716.346,-18712.967,-18711.707,-18711.227,-18697.12,-18684.09,-18680.201,-18672.947,-18667.08,-18662.615,-18658.154,-18651.451,-18642.89,-18641.05,-18632.812,-18622.951,-18623.197,-18621.318,-18620.104,-18619.326
-18619.016,-18621.17,-18617.992,-18619.361,-18624.518,-18622.54,-18620.113,-18622.883,-18627.46,-18628.361,-18632.459,-18635.094,-18626.086,-18620.73,-18616.355,-18610.154,-18611.691,-18607.412,-18601.877,-18604.283,-18599.225,-18585.0,-18576.395,-18586.084,-18600.898
-18602.275,-18602.828,-18602.47,-18599.947,-18602.408,-18588.656,-18571.465,-18572.78,-18571.672,-18559.82,-18548.893,-18548.83,-18549.752,-18543.494,-18531.197,-18518.85,-18516.59,-18509.697,-18501.787,-18494.463,-18479.62,-18472.004,-18466.186,-18463.533,-18460.473
-18455.596,-18460.076,-18455.951,-18450.209,-18450.727,-18450.244,-18452.857,-18453.344,-18449.826,-18442.127,-18445.143,-18449.365,-18440.264,-18440.46,-18436.242,-18429.469,-18435.86,-18442.275,-18445.791,-18435.967,-18431.572,-18441.078,-18441.611,-18444.607,-18452.982
-18457.889,-18463.51,-18469.64,-18465.018,-18458.977,-18465.936,-18471.676,-18475.34,-18475.537,-18471.07,-18472.514,-18479.098,-18482.004,-18476.941,-18477.695,-18478.363,-18478.04,-18488.012,-18492.354,-18493.455,-18496.41,-18499.857,-18505.74,-18504.35,-18501.48
-18509.334,-18524.654,-18528.453,-18517.69,-18509.146,-18509.643,-18514.477,-18517.438,-18527.742,-18531.357,-18523.94,-18527.578,-18526.191,-18526.904,-18537.115,-18535.707,-18529.062,-18525.328,-18526.23,-18525.984,-18523.47,-18518.406,-18515.963,-18524.887,-18524.465
-18515.658,-18508.352,-18508.861,-18523.975,-18527.178,-18524.227,-18530.31,-18530.768,-18527.564,-18527.025,-18531.906,-18530.44,-18517.6,-18510.73,-18512.248,-18523.016,-18536.564,-18537.486,-18528.305,-18513.398,-18503.604,-18502.842,-18491.29,-18479.793,-18485.703
-18489.352,-18483.756,-18479.979,-18484.297,-18490.432,-18491.87,-18495.42,-18501.85,-18499.186,-18484.828,-18488.137,-18506.44,-18516.357,-18536.684,-18556.121,-18560.885,-18559.242,-18547.508,-18543.771,-18543.424,-18536.828,-18535.719,-18526.63,-18507.148,-18491.7
-18483.3,-18484.018,-18497.404,-18505.588,-18491.021,-18477.55,-18484.215,-18492.18,-18470.62,-18447.467,-18471.66,-18482.172,-18446.379,-18443.934,-18468.496,-18453.115,-18430.754,-18441.719,-18451.98,-18441.207,-18425.51,-18414.041,-18399.951,-18408.943,-18427.555
-18419.63,-18443.744,-18466.111,-18444.838,-18431.998,-18408.475,-18411.371,-18439.352,-18428.78,-18424.145,-18420.521,-18409.875,-18428.334,-18444.885,-18443.756,-18440.44,-18433.7,-18432.092,-18435.566,-18425.568,-18420.963,-18427.82,-18426.371,-18432.477,-18426.943
-18400.871,-18398.75,-18420.094,-18436.482,-18438.871,-18438.104,-18437.121,-18442.225,-18452.662,-18446.686,-18442.531,-18440.703,-18420.914,-18402.725,-18408.066,-18419.582,-18413.975,-18420.559,-18435.818,-18447.244,-18458.371,-18442.494,-18428.527,-18428.89,-18436.97
-18451.764,-18447.613,-18448.133,-18441.492,-18433.414,-18452.143,-18463.59,-18477.4,-18468.7,-18445.22,-18457.281,-18454.0,-18441.018,-18439.783,-18442.39,-18447.29,-18428.205,-18421.078,-18425.727,-18422.605,-18434.186,-18436.47,-18426.912,-18424.799,-18424.645
-18420.635,-18423.791,-18423.965,-18416.424,-18426.01,-18427.363,-18423.75,-18427.832,-18417.303,-18412.86,-18409.752,-18394.715,-18387.688,-18396.85,-18410.764,-18407.766,-18397.775,-18404.562,-18408.035,-18398.242,-18399.662,-18402.969,-18408.324,-18422.664,-18424.887
-18415.932,-18403.287,-18400.506,-18406.898,-18409.28,-18409.7,-18410.277,-18418.867,-18419.283,-18413.203,-18416.455,-18417.664,-18419.191,-18416.332,-18419.637,-18429.982,-18429.771,-18430.336,-18430.234,-18431.242,-18425.39,-18426.273,-18439.05,-18427.441,-18431.797
-18440.34,-18422.139,-18425.604,-18428.838,-18424.215,-18426.521,-18417.008,-18416.932,-18433.414,-18438.818,-18436.895,-18445.225,-18444.25,-18440.158,-18447.88,-18446.26,-18446.035,-18449.223,-18453.76,-18460.61,-18449.781,-18445.686,-18446.695,-18434.846,-18438.896
-18452.355,-18462.96,-18466.352,-18448.486,-18433.059,-18434.967,-18438.68,-18447.072,-18459.832,-18462.031,-18464.365,-18465.088,-18447.445,-18436.156,-18439.412,-18430.295,-18410.367,-18395.86,-18378.48,-18348.174,-18317.479,-18295.29,-18272.242,-18241.299,-18215.27
-18196.104,-18165.371,-18124.43,-18086.076,-18060.096,-18047.219,-18038.494,-18033.412,-18029.127,-18023.71,-18020.11,-18013.557,-18005.854,-18004.303,-18008.465,-18015.906,-18020.238,-18020.463,-18027.602,-18036.629,-18043.275,-18053.715,-18058.752,-18067.764,-18089.795
-18109.934,-18121.717,-18122.18,-18127.611,-18137.406,-18133.758,-18148.918,-18185.76,-18192.84,-18184.97,-18203.396,-18216.611,-18227.451,-18256.701,-18260.527,-18261.455,-18284.709,-18295.113,-18303.59,-18315.48,-18325.555,-18334.107,-18332.596,-18337.273,-18347.035
-18350.555,-18357.145,-18370.123,-18376.027,-18365.883,-18360.027,-18365.518,-18363.605,-18348.98,-18349.326,-18369.428,-18366.31,-18349.744,-18337.533,-18329.191,-18335.893,-18329.809,-18328.504,-18345.695,-18339.006,-18324.643,-18323.209,-18326.064,-18326.404,-18319.033
-18313.5,-18314.748,-18317.041,-18312.428,-18308.6,-18317.137,-18329.848,-18320.879,-18295.67,-18292.508,-18290.957,-18283.932,-18290.912,-18290.637,-18295.514,-18296.578,-18281.902,-18293.256,-18314.096,-18310.39,-18302.56,-18311.854,-18323.83,-18322.87,-18314.238
-18301.75,-18295.521,-18296.666,-18301.115,-18297.875,-18279.2,-18272.193,-18271.422,-18265.92,-18260.875,-18252.785,-18261.475,-18265.668,-18254.201,-18250.836,-18250.635,-18263.814,-18271.457,-18265.436,-18265.424,-18257.695,-18262.453,-18272.467,-18263.201,-18259.586
-18259.564,-18259.477,-18256.027,-18251.32,-18259.494,-18260.883,-18265.658,-18278.45,-18278.59,-18279.686,-18284.299,-18290.744,-18295.22,-18295.95,-18300.988,-18300.855,-18300.752,-18301.56,-18299.768,-18301.5,-18299.725,-18302.482,-18318.115,-18335.39,-18337.658
-18330.807,-18337.059,-18351.35,-18368.33,-18381.129,-18384.139,-18390.742,-18400.457,-18407.85,-18410.156,-18419.037,-18431.121,-18433.793,-18449.156,-18462.484,-18467.367,-18478.646,-18476.686,-18472.643,-18472.635,-18470.191,-18471.684,-18479.586,-18486.986,-18478.357
-18474.621,-18480.963,-18489.578,-18501.748,-18506.398,-18515.234,-18518.84,-18515.812,-18526.025,-18543.89,-18555.094,-18549.559,-18547.87,-18556.553,-18557.123,-18545.184,-18538.639,-18547.63,-18545.953,-18545.322,-18562.53,-18574.842,-18579.541,-18585.475,-18590.479
-18590.275,-18595.242,-18603.797,-18609.83,-18621.207,-18633.346,-18635.107,-18627.3,-18628.31,-18630.176,-18623.48,-18621.812,-18625.605,-18630.668,-18630.129,-18634.598,-18634.178,-18622.422,-18625.197,-18629.543,-18637.293,-18648.549,-18645.568,-18644.67,-18646.072
-18650.96,-18657.445,-18655.564,-18664.127,-18672.844,-18668.572,-18671.186,-18674.443,-18667.656,-18661.729,-18655.36,-18648.297,-18655.352,-18663.84,-18662.83,-18668.957,-18674.773,-18673.885,-18672.42,-18676.467,-18686.725,-18682.896,-18679.248,-18688.363,-18688.924
-18688.027,-18689.275,-18693.883,-18703.893,-18706.943,-18709.166,-18706.875,-18702.723,-18706.672,-18706.645,-18709.363,-18721.574,-18727.67,-18722.877,-18719.49,-18719.625,-18719.846,-18721.46,-18725.643,-18732.59,-18726.707,-18718.807,-18728.916,-18735.08,-18732.744
-18735.553,-18731.34,-18716.621,-18716.186,-18726.719,-18730.598,-18732.902,-18729.42,-18727.666,-18727.24,-18717.443,-18714.785,-18720.682,-18733.09,-18743.88,-18742.588,-18743.258,-18742.406,-18739.484,-18739.412,-18738.863,-18740.387,-18739.646,-18740.23,-18738.094
-18737.104,-18747.037,-18749.121,-18745.846,-18739.426,-18729.705,-18734.922,-18741.27,-18742.775,-18748.746,-18747.037,-18739.62,-18742.748,-18746.877,-18744.129,-18750.838,-18755.027,-18749.857,-18755.78,-18757.443,-18742.824,-18734.594,-18735.469,-18734.648,-18732.709
-18734.828,-18750.13,-18759.826,-18754.072,-18752.023,-18746.787,-18746.705,-18752.607,-18751.936,-18761.957,-18770.326,-18767.912,-18767.078,-18764.842,-18762.428,-18761.855,-18760.445,-18751.822,-18742.332,-18744.863,-18756.398,-18763.201,-18761.225,-18761.98,-18763.129
-18760.574,-18754.783,-18746.746,-18743.857,-18746.629,-18757.896,-18759.115,-18743.584,-18740.178,-18743.611,-18746.479,-18747.42,-18741.385,-18737.83,-18731.996,-18737.172,-18742.055,-18730.59,-18735.197,-18740.08,-18734.152,-18731.824,-18730.598,-18729.812,-18719.932
-18725.725,-18734.46,-18717.941,-18714.256,-18716.82,-18717.193,-18726.123,-18726.082,-18726.473,-18721.023,-18712.531,-18725.732,-18731.918,-18732.246,-18741.73,-18729.213,-18716.156,-18718.656,-18717.281,-18725.03,-18730.469,-18726.904,-18725.506,-18724.531,-18724.314
-18723.324,-18735.781,-18740.553,-18730.47,-18740.803,-18746.477,-18742.93,-18747.373,-18743.965,-18749.3,-18755.715,-18748.361,-18754.674,-18761.096,-18759.11,-18754.816,-18737.037,-18734.795,-18738.107,-18726.516,-18728.3,-18730.652,-18722.49,-18712.371,-18703.553
-18699.625,-18691.312,-18678.89,-18671.305,-18674.705,-18677.137,-18681.156,-18689.303,-18681.12,-18676.781,-18677.893,-18675.21,-18685.275,-18690.826,-18690.066,-18693.828,-18698.898,-18705.88,-18707.14,-18701.393,-18696.914,-18700.389,-18697.28,-18686.46,-18686.889
-18684.617,-18679.455,-18680.254,-18676.705,-18675.668,-18676.104,-18671.617,-18664.385,-18659.244,-18664.12,-18664.031,-18654.234,-18647.93,-18639.719,-18628.102,-18624.16,-18629.773,-18631.018,-18631.602,-18635.53,-18622.033,-18606.457,-18603.11,-18590.31,-18587.127
-18607.453,-18616.496,-18612.457,-18603.912,-18590.945,-18587.848,-18580.72,-18577.521,-18583.64,-18567.834,-18548.205,-18540.197,-18540.246,-18550.914,-18567.916,-18579.922,-18559.45,-18539.291,-18544.059,-18544.771,-18543.191,-18537.48,-18536.988,-18536.496,-18527.836
-18532.77,-18532.61,-18526.979,-18526.232,-18529.701,-18545.984,-18550.21,-18543.521,-18538.252,-18532.277,-18531.19,-18525.795,-18526.828,-18527.672,-18524.104,-18533.523,-18530.002,-18523.584,-18529.707,-18527.6,-18526.807,-18529.393,-18530.303,-18528.582,-18524.688
-18520.797,-18515.6,-18519.121,-18526.252,-18526.193,-18520.191,-18521.975,-18534.97,-18536.46,-18529.957,-18525.137,-18520.512,-18524.533,-18528.324,-18522.227,-18520.094,-18527.848,-18530.637,-18533.645,-18543.137,-18542.9,-18540.127,-18539.87,-18540.08,-18544.29
-18544.207,-18551.37,-18561.396,-18558.047,-18553.113,-18546.2,-18540.023,-18538.945,-18539.309,-18543.43,-18544.29,-18549.418,-18561.389,-18562.309,-18556.77,-18551.934,-18547.42,-18549.848,-18552.244,-18550.27,-18551.28,-18550.105,-18546.36,-18547.357,-18554.982
-18560.617,-18555.312,-18552.352,-18551.318,-18554.447,-18569.05,-18568.682,-18562.135,-18567.18,-18568.889,-18568.383,-18564.6,-18562.668,-18569.35,-18573.76,-18574.613,-18571.328,-18567.447,-18569.441,-18573.818,-18574.76,-18569.531,-18568.98,-18569.535,-18562.725
-18560.01,-18562.1,-18565.375,-18569.0,-18573.965,-18572.443,-18562.725,-18562.098,-18565.594,-18572.268,-18574.055,-18566.816,-18574.547,-18579.346,-18576.402,-18578.113,-18570.994,-18566.854,-18570.768,-18573.262,-18575.574,-18579.324,-18580.11,-18575.594,-18575.506
-18577.006,-18572.488,-18569.338,-18577.59,-18588.666,-18588.19,-18584.219,-18584.229,-18583.537,-18581.064,-18581.367,-18579.836,-18575.379,-18577.182,-18577.19,-18580.182,-18591.676,-18589.965,-18583.605,-18587.16,-18582.79,-18573.459,-18572.158,-18569.562,-18570.303
-18575.285,-18570.82,-18569.951,-18572.916,-18569.67,-18567.389,-18559.979,-18557.96,-18566.459,-18568.953,-18572.81,-18574.123,-18567.895,-18567.863,-18573.62,-18580.107,-18581.016,-18578.78,-18583.982,-18587.592,-18580.89,-18573.383,-18565.068,-18554.27,-18554.621
-18559.215,-18551.82,-18543.54,-18544.383,-18540.967,-18534.43,-18541.002,-18546.2,-18542.238,-18538.723,-18531.568,-18527.55,-18533.457,-18547.621,-18555.846,-18546.137,-18538.459,-18538.225,-18540.441,-18550.379,-18556.932,-18558.035,-18557.443,-18552.465,-18555.963
-18564.674,-18566.02,-18571.885,-18576.025,-18570.639,-18572.486,-18571.904,-18560.992,-18555.264,-18556.85,-18559.176,-18557.434,-18562.412,-18569.094,-18563.592,-18564.404,-18563.773,-18554.203,-18559.443,-18566.342,-18566.76,-18576.21,-18572.049,-18553.27,-18553.55
-18554.633,-18540.916,-18532.014,-18532.871,-18541.201,-18545.797,-18545.56,-18546.498,-18543.81,-18539.426,-18530.219,-18514.77,-18499.422,-18487.22,-18475.482,-18460.182,-18447.855,-18441.924,-18436.496,-18429.94,-18430.107,-18432.074,-18424.945,-18425.139,-18434.238
-18435.242,-18431.852,-18430.049,-18434.76,-18442.027,-18445.53,-18452.61,-18457.271,-18453.973,-18447.314,-18444.602,-18452.473,-18462.314,-18479.137,-18499.072,-18502.678,-18499.02,-18497.836,-18501.082,-18506.812,-18512.047,-18514.184,-18508.104,-18502.754,-18507.537
-18521.863,-18528.332,-18522.807,-18518.918,-18516.322,-18522.512,-18527.717,-18517.836,-18508.98,-18504.777,-18504.805,-18508.857,-18503.842,-18497.55,-18499.648,-18503.012,-18508.088,-18504.0,-18495.383,-18502.738,-18512.086,-18519.418,-18522.777,-18516.877,-18521.322
-18529.89,-18526.822,-18518.025,-18516.781,-18525.947,-18526.36,-18520.365,-18523.94,-18524.496,-18524.338,-18529.504,-18521.55,-18517.156,-18524.406,-18526.15,-18531.135,-18535.465,-18537.97,-18542.3,-18546.922,-18550.617,-18545.492,-18543.71,-18536.771,-18526.969
-18532.701,-18530.287,-18525.463,-18526.223,-18523.502,-18529.328,-18536.287,-18538.643,-18534.285,-18529.21,-18538.072,-18541.541,-18542.277,-18558.56,-18564.002,-18558.266,-18559.492,-18550.064,-18544.115,-18554.615,-18557.852,-18554.123,-18548.305,-18544.754,-18546.77
-18547.95,-18547.418,-18543.713,-18542.559,-18544.068,-18544.861,-18548.553,-18552.895,-18555.607,-18554.465,-18555.215,-18562.809,-18565.006,-18560.463,-18561.191,-18564.537,-18564.719,-18564.5,-18562.361,-18558.281,-18550.047,-18541.395,-18548.104,-18559.328,-18563.795
-18567.154,-18564.07,-18561.828,-18560.15,-18554.572,-18561.965,-18574.914,-18580.988,-18581.863,-18579.082,-18581.57,-18578.393,-18569.822,-18576.326,-18586.186,-18588.346,-18586.223,-18585.62,-18593.584,-18594.572,-18584.527,-18578.988,-18579.223,-18585.844,-18592.043
-18593.336,-18599.92,-18599.06,-18587.049,-18588.32,-18598.81,-18600.928,-18592.941,-18582.166,-18587.771,-18608.027,-18615.17,-18608.377,-18610.402,-18617.297,-18613.47,-18605.174,-18598.996,-18601.758,-18610.229,-18613.264,-18618.129,-18619.191,-18616.57,-18619.219
-18617.695,-18616.703,-18620.654,-18620.738,-18619.873,-18623.53,-18621.998,-18615.545,-18617.4,-18622.465,-18624.35,-18623.723,-18624.031,-18629.293,-18627.986,-18624.652,-18636.56,-18641.328,-18632.422,-18632.566,-18633.379,-18636.328,-18645.117,-18651.383,-18654.596
-18647.078,-18639.896,-18636.623,-18636.2,-18645.91,-18649.285,-18651.219,-18657.23,-18656.309,-18652.732,-18649.889,-18654.701,-18660.186,-18659.773,-18658.826,-18654.68,-18654.098,-18654.754,-18656.357,-18663.438,-18667.93,-18671.725,-18673.145,-18675.605,-18676.033
-18669.91,-18673.781,-18670.133,-18660.955,-18667.828,-18669.332,-18671.426,-18680.223,-18686.316,-18693.193,-18692.594,-18687.807,-18680.832,-18678.08,-18688.695,-18692.941,-18686.127,-18686.594,-18693.08,-18695.418,-18697.922,-18700.82,-18701.793,-18703.682,-18701.592
-18696.604,-18700.889,-18711.36,-18713.09,-18711.791,-18718.686,-18728.502,-18728.91,-18719.645,-18719.254,-18725.871,-18726.256,-18722.639,-18716.623,-18717.518,-18721.705,-18715.86,-18711.904,-18714.578,-18714.863,-18716.707,-18721.072,-18722.674,-18724.102,-18725.297
-18728.855,-18732.723,-18730.225,-18733.957,-18739.117,-18736.133,-18734.424,-18731.977,-18733.498,-18736.69,-18733.904,-18733.979,-18733.559,-18729.648,-18728.725,-18732.898,-18737.87,-18741.406,-18743.893,-18739.092,-18737.047,-18747.877,-18753.062,-18745.268,-18746.055
-18752.395,-18747.658,-18748.168,-18753.88,-18752.736,-18749.771,-18748.92,-18751.795,-18748.135,-18744.793,-18748.992,-18749.74,-18753.488,-18760.832,-18764.957,-18764.582,-18759.658,-18757.33,-18761.715,-18764.21,-18760.781,-18760.96,-18766.754,-18776.98,-18784.361
-18783.896,-18780.371,-18774.094,-18773.104,-18771.445,-18771.236,-18783.55,-18789.324,-18786.85,-18785.197,-18786.352,-18788.512,-18783.967,-18778.924,-18775.725,-18775.396,-18776.148,-18774.03,-18774.816,-18779.566,-18785.8,-18787.006,-18783.123,-18778.668,-18776.076
-18782.605,-18789.56,-18783.38,-18773.912,-18769.238,-18771.418,-18782.043,-18783.45,-18782.098,-18788.746,-18785.299,-18780.49,-18776.814,-18771.656,-18774.201,-18771.271,-18767.59,-18771.693,-18771.97,-18766.633,-18763.691,-18765.236,-18768.973,-18775.482,-18775.924
-18769.969,-18765.916,-18766.064,-18768.885,-18766.082,-18763.242,-18762.146,-18762.02,-18772.936,-18782.334,-18779.35,-18775.795,-18772.979,-18764.291,-18763.195,-18771.908,-18768.906,-18761.34,-18759.227,-18752.727,-18744.3,-18740.637,-18744.193,-18747.959,-18753.46
-18762.135,-18760.35,-18757.2,-18756.914,-18753.79,-18750.217,-18745.371,-18745.082,-18741.281,-18738.777,-18749.97,-18753.857,-18747.182,-18739.842,-18732.332,-18729.41,-18728.652,-18730.564,-18732.816,-18728.287,-18715.742,-18708.91,-18725.742,-18742.217,-18740.445
-18735.822,-18730.781,-18725.088,-18720.56,-18717.191,-18713.854,-18715.512,-18720.34,-18720.188,-18719.139,-18715.135,-18713.537,-18714.863,-18710.902,-18703.562,-18695.857,-18690.234,-18684.74,-18688.914,-18693.984,-18693.25,-18703.06,-18701.957,-18687.994,-18688.484
-18693.34,-18689.508,-18682.596,-18676.154,-18676.92,-18684.197,-18684.12,-18681.012,-18681.818,-18684.47,-18685.021,-18679.207,-18674.855,-18674.424,-18675.938,-18673.762,-18663.768,-18657.674,-18657.957,-18656.338,-18654.543,-18658.316,-18663.71,-18666.219,-18665.117
-18659.135,-18656.584,-18663.82,-18669.578,-18671.525,-18673.09,-18666.924,-18660.31,-18654.879,-18650.52,-18653.312,-18651.861,-18653.309,-18657.783,-18654.973,-18656.465,-18653.701,-18641.6,-18633.893,-18637.154,-18647.648,-18650.98,-18650.389,-18652.168,-18656.297
-18659.686,-18644.705,-18630.61,-18633.559,-18627.943,-18624.916,-18639.105,-18647.816,-18642.83,-18641.572,-18646.328,-18642.098,-18637.986,-18637.992,-18633.861,-18628.92,-18628.1,-18633.768,-18634.271,-18637.963,-18643.607,-18637.262,-18638.242,-18638.715,-18634.389
-18629.65,-18625.701,-18630.414,-18621.281,-18612.227,-18610.168,-18606.922,-18614.121,-18614.275,-18610.715,-18601.088,-18598.16,-18608.715,-18602.607,-18606.797,-18610.098,-18595.504,-18595.158,-18597.516,-18597.229,-18597.229,-18599.088,-18604.227,-18605.547,-18608.885
-18605.75,-18599.814,-18603.01,-18605.266,-18604.16,-18604.959,-18601.701,-18594.785,-18599.025,-18603.871,-18604.65,-18607.623,-18598.81,-18592.734,-18599.113,-18599.613,-18594.984,-18595.879,-18597.18,-18593.625,-18593.785,-18593.56,-18596.547,-18601.988,-18594.865
-18587.88,-18587.293,-18588.86,-18591.465,-18590.008,-18583.96,-18582.656,-18592.896,-18598.26,-18594.576,-18590.51,-18590.74,-18591.13,-18586.66,-18590.537,-18586.857,-18575.807,-18581.738,-18583.62,-18579.012,-18581.746,-18584.248,-18578.443,-18570.305,-18578.385
-18589.912,-18593.07,-18589.957,-18580.803,-18583.709,-18594.34,-18597.496,-18592.357,-18586.45,-18584.428,-18583.318,-18587.08,-18587.89,-18584.592,-18585.049,-18592.39,-18599.143,-18597.123,-18599.277,-18596.379,-18588.363,-18586.645,-18583.871,-18589.96,-18600.52
-18606.312,-18612.334,-18618.715,-18622.502,-18621.72,-18614.807,-18604.385,-18609.875,-18618.416,-18620.53,-18621.975,-18601.053,-18589.35,-18599.861,-18600.186,-18600.396,-18600.988,-18598.34,-18601.348,-18610.588,-18619.45,-18618.146,-18610.967,-18607.479,-18604.215
-18599.57,-18606.072,-18611.965,-18605.396,-18600.418,-18601.37,-18609.172,-18615.117,-18612.3,-18612.86,-18617.008,-18611.615,-18609.213,-18620.473,-18618.477,-18611.799,-18615.393,-18610.41,-18612.188,-18620.203,-18618.516,-18623.766,-18633.924,-18637.285,-18632.988
-18631.377,-18643.84,-18653.977,-18645.316,-18630.229,-18631.236,-18634.486,-18624.39,-18626.486,-18634.582,-18630.273,-18625.904,-18622.451,-18619.953,-18619.738,-18624.168,-18635.303,-18639.295,-18635.207,-18631.912,-18629.717,-18627.312,-18625.42,-18628.496,-18639.271
-18648.197,-18644.822,-18640.406,-18640.006,-18635.48,-18636.014,-18646.648,-18650.307,-18645.283,-18648.57,-18651.184,-18648.877,-18649.477,-18640.05,-18629.3,-18628.842,-18629.057,-18633.123,-18641.787,-18647.988,-18647.273,-18641.047,-18641.99,-18649.203,-18651.922
-18653.39,-18650.219,-18644.416,-18648.297,-18652.092,-18652.492,-18653.068,-18650.586,-18653.828,-18658.977,-18658.182,-18658.219,-18658.588,-18652.232,-18648.111,-18653.672,-18651.936,-18649.531,-18659.201,-18664.064,-18661.027,-18656.24,-18654.88,-18658.643,-18662.365
-18667.879,-18670.947,-18669.295,-18671.652,-18677.06,-18679.191,-18682.445,-18684.107,-18676.607,-18674.771,-18682.873,-18683.875,-18683.377,-18686.459,-18676.006,-18666.678,-18675.707,-18676.133,-18669.602,-18668.225,-18662.967,-18671.354,-18686.97,-18689.2,-18688.227
-18686.291,-18683.566,-18682.4,-18679.146,-18678.523,-18684.572,-18688.97,-18689.943,-18686.854,-18681.355,-18690.223,-18698.596,-18693.125,-18688.184,-18682.684,-18683.564,-18691.244,-18696.793,-18696.979,-18692.578,-18690.941,-18686.646,-18688.479,-18689.371,-18681.736
-18689.906,-18696.65,-18692.826,-18692.092,-18691.854,-18694.803,-18693.22,-18687.947,-18682.62,-18679.264,-18684.62,-18692.943,-18701.42,-18700.605,-18691.607,-18684.25,-18681.385,-18688.387,-18691.262,-18692.611,-18700.627,-18698.459,-18687.885,-18681.865,-18686.195
-18694.111,-18694.754,-18688.15,-18688.809,-18699.547,-18699.078,-18697.836,-18702.184,-18694.977,-18688.578,-18693.453,-18701.973,-18701.996,-18697.67,-18702.09,-18705.445,-18701.34,-18690.188,-18682.812,-18693.037,-18695.754,-18687.34,-18690.309,-18687.098,-18680.39
-18684.238,-18689.363,-18695.809,-18688.701,-18675.994,-18676.988,-18676.291,-18673.982,-18672.965,-18667.816,-18668.092,-18673.316,-18667.512,-18661.836,-18663.469,-18656.506,-18652.768,-18652.97,-18652.508,-18650.195,-18640.762,-18646.713,-18653.004,-18637.838,-18622.707
-18620.615,-18624.44,-18622.852,-18624.143,-18627.068,-18627.48,-18629.06,-18624.404,-18621.152,-18621.523,-18620.668,-18616.893,-18614.535,-18613.223,-18609.18,-18614.9,-18611.873,-18603.97,-18610.748,-18607.994,-18601.6,-18600.94,-18598.553,-18597.82,-18601.232
-18606.188,-18605.494,-18603.23,-18599.86,-18597.41,-18595.555,-18592.338,-18593.348,-18594.896,-18598.541,-18598.547,-18602.072,-18612.568,-18606.613,-18595.238,-18594.223,-18599.973,-18603.322,-18603.531,-18607.598,-18607.21,-18604.762,-18599.998,-18598.39,-18601.07
-18597.715,-18603.451,-18604.74,-18594.111,-18597.955,-18607.545,-18609.254,-18610.84,-18607.852,-18597.46,-18599.197,-18604.008,-18599.463,-18600.518,-18596.17,-18592.465,-18604.059,-18605.719,-18598.916,-18606.832,-18609.53,-18594.346,-18590.76,-18597.484,-18595.668
-18588.857,-18585.209,-18590.729,-18595.004,-18597.418,-18596.521,-18588.33,-18587.863,-18588.803,-18593.438,-18601.244,-18599.404,-18601.305,-18604.885,-18606.93,-18603.95,-18596.348,-18595.05,-18587.107,-18585.43,-18587.955,-18570.535,-18563.393,-18573.8,-18574.488
-18571.031,-18572.057,-18571.043,-18572.908,-18578.709,-18575.49,-18565.346,-18559.863,-18565.871,-18573.744,-18570.615,-18571.254,-18580.205,-18581.275,-18577.432,-18574.41,-18576.994,-18594.094,-18602.443,-18591.207,-18585.92,-18583.873,-18579.84,-18581.086,-18581.586
-18584.613,-18589.729,-18588.832,-18588.723,-18597.332,-18603.223,-18596.57,-18588.648,-18589.348,-18595.252,-18595.736,-18599.309,-18610.78,-18608.924,-18601.232,-18601.367,-18603.13,-18602.236,-18597.613,-18603.035,-18613.357,-18611.1,-18607.695,-18607.379,-18607.273
-18609.463,-18607.695,-18610.746,-18616.73,-18613.602,-18615.479,-18625.28,-18634.387,-18632.174,-18621.049,-18625.426,-18631.416,-18623.832,-18621.482,-18625.045,-18625.19,-18618.422,-18613.627,-18623.14,-18633.826,-18636.73,-18640.627,-18645.312,-18645.738,-18644.592
-18650.398,-18656.115,-18650.748,-18649.316,-18654.463,-18652.516,-18650.713,-18650.156,-18648.266,-18654.72,-18660.596,-18655.795,-18649.695,-18646.623,-18650.176,-18662.977,-18668.434,-18662.57,-18659.059,-18657.54,-18656.143,-18653.367,-18653.299,-18656.18,-18654.209
-18658.498,-18663.371,-18663.281,-18658.904,-18642.3,-18642.559,-18651.094,-18642.322,-18642.553,-18650.559,-18657.506,-18661.969,-18660.012,-18663.018,-18663.719,-18657.727,-18653.996,-18654.572,-18658.523,-18663.566,-18664.938,-18662.223,-18671.068,-18681.7,-18673.795
-18668.203,-18668.445,-18661.05,-18660.26,-18666.44,-18671.898,-18677.857,-18674.818,-18668.627,-18669.066,-18669.916,-18673.516,-18683.87,-18693.191,-18687.725,-18682.629,-18690.846,-18686.965,-18679.062,-18678.463,-18676.812,-18680.582,-18678.271,-18673.617,-18678.148
-18680.93,-18682.203,-18683.625,-18680.574,-18678.37,-18678.654,-18674.748,-18676.975,-18681.729,-18677.154,-18673.604,-18674.17,-18679.463,-18679.936,-18674.611,-18676.262,-18677.49,-18681.475,-18687.582,-18678.877,-18668.016,-18674.678,-18682.453,-18677.756,-18671.44
-18671.035,-18679.777,-18687.889,-18681.836,-18670.406,-18670.543,-18677.316,-18680.723,-18688.076,-18695.555,-18699.309,-18697.498,-18689.037,-18685.682,-18683.596,-18684.418,-18686.59,-18685.47,-18690.432,-18690.535,-18687.781,-18691.113,-18693.986,-18695.508,-18694.332
-18692.615,-18690.883,-18688.57,-18685.895,-18688.002,-18692.85,-18689.242,-18689.588,-18693.41,-18690.162,-18694.07,-18701.816,-18704.943,-18702.389,-18692.107,-18694.465,-18698.588,-18693.432,-18703.895,-18709.082,-18707.443,-18714.078,-18707.508,-18698.076,-18693.088
-18694.008,-18703.174,-18706.81,-18706.432,-18702.123,-18706.547,-18712.295,-18700.97,-18698.912,-18702.28,-18697.441,-18706.158,-18724.223,-18727.19,-18718.705,-18718.582,-18720.426,-18718.322,-18718.602,-18718.172,-18721.918,-18721.186,-18712.926,-18713.203,-18715.227
-18718.201,-18724.668,-18722.574,-18709.668,-18701.998,-18707.877,-18707.244,-18702.143,-18702.672,-18699.104,-18698.754,-18708.898,-18719.016,-18714.469,-18709.58,-18720.295,-18723.865,-18719.734,-18719.693,-18716.287,-18716.611,-18720.55,-18719.51,-18716.832,-18708.36
-18694.924,-18696.777,-18714.883,-18719.936,-18714.54,-18717.344,-18715.58,-18714.117,-18721.027,-18723.31,-18727.086,-18739.168,-18737.957,-18714.39,-18710.174,-18726.785,-18723.203,-18723.602,-18728.748,-18715.527,-18715.178,-18724.377,-18731.895,-18740.555,-18733.797
-18721.406,-18717.266,-18722.734,-18724.564,-18721.016,-18729.025,-18730.734,-18725.305,-18730.195,-18735.52,-18733.484,-18731.0,-18734.342,-18728.523,-18717.488,-18718.611,-18726.61,-18735.312,-18728.889,-18720.03,-18729.324,-18732.617,-18726.645,-18725.121,-18730.314
-18738.049,-18735.066,-18729.27,-18731.348,-18737.137,-18740.39,-18735.225,-18732.898,-18734.479,-18724.72,-18718.584,-18733.658,-18745.121,-18738.092,-18738.273,-18744.707,-18741.451,-18731.484,-18718.68,-18723.805,-18737.334,-18733.299,-18727.018,-18725.635,-18728.652
-18732.232,-18733.436,-18739.285,-18740.744,-18735.637,-18726.21,-18723.494,-18735.2,-18739.725,-18736.236,-18737.71,-18735.588,-18725.705,-18718.502,-18716.951,-18729.791,-18747.81,-18735.525,-18718.297,-18726.275,-18728.773,-18716.832,-18717.809,-18736.402,-18738.994
-18724.174,-18720.598,-18721.268,-18719.605,-18716.809,-18716.459,-18725.277,-18722.22,-18712.455,-18717.688,-18720.824,-18715.34,-18714.54,-18715.59,-18714.936,-18726.037,-18731.71,-18727.434,-18733.805,-18714.797,-18702.586,-18728.594,-18727.303,-18720.623,-18719.979
-18705.385,-18705.992,-18700.162,-18696.988,-18722.656,-18743.8,-18745.078,-18744.848,-18750.318,-18748.904,-18739.62,-18723.908,-18717.436,-18716.455,-18708.969,-18723.816,-18737.686,-18735.008,-18731.49,-18718.342,-18718.547,-18737.473,-18752.91,-18752.318,-18748.104
-18745.14,-18730.508,-18730.457,-18735.127,-18739.258,-18768.396,-18782.402,-18775.5,-18780.799,-18779.654,-18764.09,-18760.37,-18764.242,-18763.285,-18763.879,-18753.799,-18769.87,-18793.2,-18726.223,-18680.293,-18717.53,-18703.902,-18677.943,-18692.943,-18716.19
-18743.326,-18735.457,-18721.828,-18729.64,-18721.76,-18693.934,-18674.332,-18695.203,-18719.908,-18732.87,-18749.082,-18749.34,-18747.256,-18742.883,-18737.994,-18736.818,-18731.334,-18727.215,-18723.748,-18739.184,-18744.727,-18734.002,-18742.795,-18737.096,-18737.236
-18747.688,-18730.77,-18731.74,-18754.46,-18765.406,-18756.074,-18742.56,-18743.818,-18743.094,-18740.695,-18738.076,-18740.398,-18745.023,-18753.09,-18775.494,-18772.021,-18758.525,-18751.283,-18736.969,-18757.992,-18777.598,-18763.785,-18752.049,-18734.863,-18734.438
-18762.314,-18770.107,-18761.229,-18766.035,-18768.959,-18756.92,-18751.82,-18754.912,-18745.893,-18746.3,-18758.479,-18760.182,-18770.41,-18778.4,-18773.42,-18773.654,-18777.174,-18780.176,-18769.752,-18758.947,-18766.049,-18774.633,-18782.156,-18790.062,-18794.496
-18801.36,-18802.707,-18789.605,-18782.748,-18777.832,-18772.52,-18782.676,-18781.129,-18779.55,-18789.398,-18784.623,-18776.484,-18775.04,-18787.871,-18797.598,-18793.55,-18793.01,-18792.385,-18799.598,-18803.328,-18804.75,-18807.531,-18801.941,-18808.287,-18806.143
-18803.02,-18808.62,-18797.842,-18799.867,-18811.062,-18811.764,-18809.68,-18809.604,-18807.998,-18802.604,-18810.791,-18812.318,-18805.645,-18812.887,-18814.973,-18814.332,-18821.533,-18826.926,-18826.406,-18822.678,-18813.58,-18811.113,-18817.396,-18820.049,-18833.912
-18834.441,-18820.73,-18828.94,-18835.68,-18843.256,-18843.291,-18826.54,-18833.707,-18837.94,-18830.39,-18834.328,-18820.508,-18821.834,-18848.715,-18847.268,-18849.8,-18861.812,-18851.658,-18842.912,-18839.402,-18842.246,-18844.111,-18842.562,-18846.605,-18842.324
-18845.848,-18850.48,-18852.434,-18868.51,-18866.17,-18847.355,-18841.238,-18846.229,-18853.795,-18864.584,-18871.71,-18869.719,-18866.877,-18857.363,-18861.44,-18867.473,-18845.059,-18841.37,-18858.639,-18858.578,-18855.438,-18865.545,-18874.674,-18869.826,-18859.922
-18859.146,-18866.422,-18862.887,-18859.81,-18865.066,-18864.002,-18866.955,-18870.906,-18874.09,-18873.086,-18859.016,-18854.98,-18865.293,-18875.58,-18880.115,-18869.08,-18860.89,-18882.275,-18884.322,-18856.576,-18871.967,-18887.71,-18859.58,-18854.973,-18865.756
-18858.418,-18859.596,-18863.674,-18862.64,-18870.768,-18875.46,-18871.986,-18867.426,-18862.912,-18860.662,-18859.432,-18863.354,-18871.135,-18878.379,-18876.38,-18873.06,-18880.398,-18881.33,-18878.195,-18874.805,-18873.713,-18876.053,-18871.455,-18874.695,-18875.832
-18870.656,-18871.701,-18866.55,-18866.486,-18870.51,-18872.623,-18876.463,-18870.23,-18866.54,-18869.223,-18866.959,-18864.264,-18865.96,-18863.754,-18859.027,-18865.227,-18865.316,-18863.078,-18869.652,-18860.365,-18853.229,-18862.111,-18859.818,-18857.469,-18856.918
-18847.441,-18849.627,-18851.764,-18850.023,-18847.678,-18840.277,-18852.607,-18856.814,-18847.053,-18845.31,-18828.584,-18823.047,-18833.713,-18839.873,-18847.861,-18842.799,-18841.975,-18846.959,-18843.652,-18851.674,-18847.176,-18836.875,-18850.395,-18837.855,-18806.97
-18820.584,-18836.957,-18830.57,-18834.809,-18828.99,-18832.299,-18847.928,-18833.666,-18830.982,-18850.49,-18851.773,-18832.59,-18822.32,-18826.164,-18819.723,-18824.746,-18840.402,-18846.127,-18846.043,-18839.73,-18831.643,-18815.074,-18811.06,-18817.0,-18811.795
-18814.668,-18817.125,-18826.523,-18831.344,-18813.879,-18819.312,-18833.055,-18827.232,-18819.184,-18809.557,-18804.625,-18804.227,-18813.0,-18837.795,-18849.438,-18837.047,-18823.592,-18824.697,-18834.684,-18837.564,-18827.742,-18817.865,-18810.033,-18797.352,-18803.914
-18809.291,-18790.66,-18791.934,-18801.018,-18810.436,-18832.295,-18832.492,-18818.45,-18808.227,-18811.928,-18817.662,-18815.092,-18842.715,-18844.613,-18806.354,-18811.322,-18823.846,-18834.787,-18848.318,-18831.223,-18825.676,-18822.094,-18812.055,-18812.38,-18821.479
-18824.717,-18786.25,-18784.018,-18822.934,-18825.059,-18834.332,-18842.295,-18816.273,-18798.18,-18812.967,-18821.996,-18803.361,-18800.418,-18812.332,-18819.135,-18818.47,-18815.473,-18813.848,-18801.857,-18810.95,-18836.072,-18832.543,-18815.57,-18800.867,-18799.773
-18819.65,-18822.846,-18816.623,-18825.188,-18826.105,-18828.621,-18830.88,-18831.662,-18837.096,-18835.18,-18845.041,-18847.121,-18843.031,-18847.797,-18842.502,-18838.887,-18831.352,-18836.432,-18843.932,-18838.527,-18840.39,-18828.686,-18828.812,-18833.98,-18836.54
-18863.186,-18865.031,-18852.746,-18846.283,-18838.531,-18843.459,-18839.365,-18844.25,-18856.574,-18853.6,-18861.84,-18863.066,-18848.383,-18850.1,-18854.486,-18844.566,-18844.125,-18850.469,-18849.812,-18862.246,-18874.186,-18873.656,-18867.969,-18860.252,-18868.6
-18870.205,-18860.215,-18860.664,-18875.467,-18887.43,-18865.762,-18860.482,-18871.498,-18851.531,-18848.17,-18860.002,-18866.578,-18881.223,-18888.113,-18883.72,-18869.158,-18873.988,-18907.52,-18914.879,-18899.004,-18890.9,-18885.27,-18879.092,-18879.395,-18886.066
-18883.092,-18883.195,-18886.857,-18873.803,-18866.965,-18872.186,-18871.824,-18864.371,-18861.83,-18864.428,-18860.645,-18857.506,-18854.225,-18860.686,-18878.232,-18882.223,-18878.953,-18874.309,-18872.371,-18877.703,-18872.152,-18868.094,-18879.568,-18884.209,-18882.988
-18891.607,-18899.764,-18895.844,-18890.928,-18883.37,-18867.54,-18867.227,-18870.08,-18868.021,-18883.059,-18885.934,-18877.24,-18882.998,-18883.0,-18883.545,-18894.002,-18893.207,-18894.078,-18898.568,-18891.62,-18893.975,-18888.219,-18875.455,-18887.975,-18903.018
-18904.787,-18888.291,-18877.418,-18881.846,-18884.635,-18886.541,-18876.521,-18887.34,-18895.611,-18884.857,-18895.04,-18888.777,-18885.508,-18895.172,-18889.773,-18889.514,-18896.102,-18904.617,-18903.363,-18907.158,-18906.654,-18885.008,-18872.133,-18877.238,-18893.143
-18899.695,-18898.344,-18878.084,-18864.863,-18887.102,-18877.527,-18872.625,-18889.953,-18882.098,-18882.684,-18878.5,-18878.795,-18887.805,-18876.209,-18856.666,-18851.527,-18879.932,-18880.89,-18865.383,-18875.791,-18876.07,-18884.936,-18886.28,-18884.768,-18893.756
-18888.625,-18889.12,-18884.633,-18870.107,-18865.518,-18878.82,-18883.996,-18878.918,-18872.896,-18853.764,-18859.443,-18873.11,-18876.918,-18869.436,-18856.162,-18871.447,-18867.336,-18863.734,-18876.346,-18873.164,-18880.393,-18872.33,-18862.074,-18862.736,-18854.709
-18859.596,-18869.637,-18875.443,-18866.498,-18859.008,-18870.37,-18869.81,-18864.613,-18858.541,-18851.23,-18857.24,-18855.447,-18856.178,-18872.713,-18882.186,-18878.014,-18865.932,-18877.406,-18905.432,-18907.06,-18906.227,-18907.898,-18893.877,-18879.57,-18856.049
-18843.678,-18856.465,-18855.592,-18844.824,-18837.29,-18843.162,-18859.805,-18853.148,-18843.65,-18853.977,-18849.445,-18827.012,-18826.463,-18832.47,-18823.127,-18823.498,-18820.809,-18811.053,-18811.887,-18817.498,-18823.559,-18825.75,-18827.24,-18825.098,-18827.135
-18831.23,-18814.68,-18804.547,-18809.996,-18797.379,-18788.967,-18795.307,-18782.627,-18777.13,-18781.441,-18778.34,-18783.295,-18769.771,-18760.225,-18771.443,-18780.084,-18786.46,-18778.377,-18781.732,-18777.74,-18760.969,-18759.47,-18739.828,-18738.105,-18763.13
-18774.72,-18770.83,-18763.344,-18763.914,-18747.371,-18754.68,-18788.506,-18773.932,-18746.812,-18757.79,-18769.2,-18762.666,-18767.438,-18757.709,-18745.73,-18753.535,-18749.717,-18764.434,-18775.041,-18768.115,-18770.23,-18760.373,-18749.658,-18748.3,-18769.39
-18782.516,-18761.93,-18756.443,-18764.799,-18764.412,-18763.531,-18767.086,-18761.098,-18756.736,-18763.738,-18768.45,-18776.186,-18766.95,-18753.277,-18747.322,-18741.67,-18763.178,-18758.44,-18731.0,-18754.92,-18775.785,-18766.838,-18758.41,-18747.348,-18755.338
-18768.48,-18764.256,-18769.285,-18780.525,-18777.2,-18762.367,-18763.828,-18764.951,-18739.232,-18745.305,-18765.484,-18755.846,-18753.44,-18751.193,-18751.283,-18754.258,-18749.494,-18746.324,-18748.91,-18768.234,-18761.77,-18751.064,-18768.797,-18767.283,-18768.066
-18761.934,-18747.043,-18751.473,-18765.262,-18791.574,-18776.672,-18753.352,-18765.18,-18761.043,-18767.016,-18755.734,-18730.395,-18746.41,-18747.977,-18743.992,-18760.855,-18766.45,-18760.102,-18749.434,-18751.568,-18756.762,-18751.05,-18753.393,-18761.287,-18769.184
-18768.598,-18749.123,-18739.156,-18744.834,-18741.018,-18748.88,-18765.182,-18755.264,-18751.693,-18760.139,-18756.31,-18751.93,-18740.027,-18738.012,-18751.732,-18748.396,-18735.844,-18734.758,-18742.207,-18739.535,-18740.229,-18746.727,-18740.266,-18743.596,-18741.555
-18732.305,-18745.895,-18739.906,-18712.93,-18715.25,-18725.467,-18728.012,-18735.783,-18736.8,-18735.035,-18725.883,-18724.857,-18749.266,-18752.45,-18736.764,-18730.475,-18729.658,-18732.92,-18733.35,-18737.764,-18736.762,-18731.578,-18743.092,-18745.97,-18737.258
-18744.7,-18748.82,-18734.969,-18729.195,-18733.537,-18728.768,-18718.701,-18722.434,-18741.889,-18752.072,-18741.066,-18733.742,-18736.764,-18728.617,-18724.805,-18732.98,-18739.75,-18743.645,-18737.232,-18739.291,-18739.943,-18728.932,-18728.549,-18723.84,-18734.66
-18741.154,-18721.283,-18738.484,-18747.059,-18732.652,-18737.98,-18717.59,-18708.26,-18722.438,-18720.463,-18723.9,-18728.623,-18729.924,-18726.129,-18716.834,-18706.459,-18707.926,-18713.877,-18708.004,-18713.584,-18711.398,-18703.623,-18702.24,-18701.473,-18716.041
-18716.857,-18703.256,-18703.012,-18716.037,-18714.604,-18704.74,-18709.531,-18705.729,-18720.314,-18746.318,-18746.99,-18736.766,-18726.05,-18736.299,-18740.273,-18736.809,-18741.957,-18728.32,-18732.691,-18742.697,-18730.598,-18727.004,-18725.049,-18728.48,-18734.408
-18738.97,-18748.79,-18738.775,-18721.129,-18724.266,-18731.23,-18722.742,-18718.732,-18723.266,-18707.168,-18700.22,-18713.277,-18709.12,-18712.58,-18717.441,-18703.479,-18698.936,-18696.387,-18697.293,-18706.107,-18711.8,-18715.88,-18706.486,-18698.537,-18705.184
-18708.861,-18709.281,-18703.025,-18699.11,-18711.3,-18703.598,-18681.797,-18683.623,-18690.658,-18704.088,-18712.178,-18701.807,-18702.99,-18700.87,-18694.428,-18701.27,-18710.826,-18703.518,-18679.44,-18686.395,-18706.95,-18706.41,-18710.928,-18714.768,-18712.336
-18698.889,-18691.727,-18715.006,-18716.02,-18702.865,-18712.37,-18711.703,-18703.092,-18691.893,-18688.361,-18697.602,-18692.195,-18702.283,-18712.639,-18695.426,-18699.979,-18706.793,-18704.162,-18719.83,-18718.047,-18700.117,-18701.666,-18702.4,-18696.17,-18706.543
-18717.803,-18716.156,-18710.383,-18706.531,-18705.15,-18703.973,-18706.69,-18704.436,-18701.008,-18702.771,-18707.355,-18714.186,-18713.398,-18715.727,-18717.496,-18711.916,-18704.375,-18702.918,-18713.36,-18703.355,-18691.36,-18695.025,-18695.531,-18710.738,-18713.38
-18694.531,-18694.475,-18708.607,-18715.58,-18718.08,-18716.143,-18706.432,-18707.729,-18708.38,-18708.887,-18710.588,-18704.473,-18714.69,-18711.8,-18711.094,-18721.42,-18712.447,-18720.945,-18724.074,-18725.871,-18736.012,-18728.854,-18731.584,-18731.436,-18729.764
-18732.314,-18729.629,-18721.91,-18713.096,-18723.55,-18725.008,-18720.85,-18723.732,-18721.361,-18730.332,-18738.945,-18740.773,-18736.424,-18733.287,-18724.168,-18703.434,-18710.17,-18718.947,-18699.197,-18682.28,-18688.31,-18706.357,-18715.355,-18704.516,-18691.398
-18700.52,-18701.217,-18698.762,-18713.135,-18719.082,-18724.092,-18713.547,-18694.898,-18701.025,-18715.174,-18714.367,-18701.57,-18707.89,-18714.465,-18702.748,-18705.324,-18713.512,-18713.16,-18713.818,-18713.55,-18713.32,-18715.525,-18725.59,-18740.318,-18726.232
-18708.168,-18718.99,-18713.512,-18703.922,-18713.88,-18725.15,-18741.25,-18739.926,-18715.676,-18699.672,-18710.695,-18730.945,-18722.775,-18703.752,-18704.691,-18718.88,-18732.918,-18726.582,-18708.34,-18721.502,-18741.24,-18728.451,-18723.857,-18729.924,-18730.139
-18731.4,-18718.973,-18718.312,-18728.639,-18725.33,-18731.23,-18743.62,-18743.25,-18730.174,-18721.543,-18720.611,-18720.805,-18725.842,-18721.541,-18718.998,-18725.51,-18716.947,-18705.281,-18717.754,-18741.922,-18736.773,-18726.299,-18742.57,-18735.98,-18717.244
-18726.73,-18731.75,-18727.506,-18732.836,-18730.355,-18719.543,-18725.13,-18733.03,-18730.516,-18735.441,-18735.152,-18725.262,-18723.865,-18728.834,-18722.201,-18712.09,-18734.889,-18748.795,-18727.498,-18727.262,-18729.076,-18718.527,-18724.627,-18731.387,-18729.857
-18731.725,-18742.281,-18744.557,-18736.975,-18735.62,-18741.795,-18747.479,-18742.55,-18741.658,-18739.988,-18731.826,-18730.074,-18730.387,-18737.46,-18740.896,-18738.451,-18738.41,-18736.012,-18736.611,-18736.197,-18733.729,-18733.812,-18733.523,-18730.875,-18739.22
-18740.385,-18702.959,-18690.594,-18718.674,-18718.484,-18729.213,-18757.438,-18736.312,-18720.914,-18727.271,-18717.25,-18727.082,-18733.402,-18728.545,-18725.22,-18710.76,-18720.941,-18737.244,-18741.178,-18738.072,-18726.975,-18730.934,-18734.43,-18731.33,-18726.523
-18722.75,-18728.137,-18736.541,-18733.867,-18717.29,-18718.354,-18725.787,-18729.396,-18734.088,-18732.998,-18738.275,-18728.578,-18729.559,-18743.664,-18733.123,-18740.57,-18758.463,-18742.729,-18708.498,-18708.55,-18738.178,-18748.898,-18746.857,-18737.924,-18733.832
-18727.266,-18722.63,-18736.928,-18726.092,-18716.428,-18730.205,-18721.424,-18710.918,-18727.93,-18736.12,-18721.502,-18718.44,-18719.092,-18720.695,-18726.121,-18716.639,-18715.059,-18720.574,-18720.885,-18718.79,-18722.037,-18736.033,-18730.086,-18731.316,-18739.234
-18707.594,-18693.049,-18708.215,-18711.955,-18717.97,-18728.182,-18728.979,-18720.041,-18719.146,-18726.904,-18724.865,-18719.094,-18720.947,-18720.531,-18709.896,-18712.385,-18726.422,-18725.475,-18717.514,-18715.314,-18724.72,-18736.016,-18733.678,-18724.934,-18721.615
-18724.855,-18720.082,-18721.107,-18736.22,-18735.377,-18727.936,-18721.809,-18713.8,-18716.068,-18718.55,-18721.938,-18723.934,-18720.236,-18721.473,-18719.78,-18714.123,-18712.078,-18712.725,-18711.67,-18717.008,-18727.375,-18716.816,-18706.617,-18717.178,-18718.2
-18709.438,-18708.572,-18711.633,-18710.826,-18708.174,-18713.412,-18723.178,-18726.85,-18726.32,-18722.975,-18718.453,-18716.342,-18708.385,-18702.443,-18712.32,-18713.975,-18701.191,-18704.71,-18710.969,-18701.967,-18695.36,-18694.984,-18701.477,-18703.973,-18708.973
-18717.717,-18710.33,-18715.705,-18718.316,-18708.379,-18715.719,-18717.426,-18715.938,-18712.953,-18707.744,-18704.084,-18702.814,-18721.002,-18728.371,-18724.213,-18719.195,-18708.707,-18713.193,-18715.518,-18710.854,-18714.852,-18721.953,-18716.361,-18703.922,-18702.914
-18702.572,-18701.068,-18696.18,-18694.162,-18700.818,-18698.584,-18701.172,-18705.635,-18697.9,-18693.678,-18693.377,-18702.43,-18723.814,-18727.682,-18709.062,-18706.863,-18713.947,-18704.47,-18699.908,-18696.705,-18695.34,-18700.691,-18699.207,-18707.31,-18713.129
-18708.951,-18703.059,-18691.168,-18696.258,-18708.318,-18701.035,-18687.248,-18686.324,-18695.49,-18693.584,-18688.094,-18696.836,-18701.758,-18703.752,-18707.822,-18691.596,-18693.555,-18715.951,-18700.8,-18691.125,-18704.047,-18704.03,-18712.172,-18717.629,-18713.934
-18721.35,-18722.312,-18715.385,-18709.848,-18705.316,-18704.348,-18698.158,-18693.664,-18700.078,-18703.697,-18705.111,-18708.658,-18707.916,-18711.47,-18714.09,-18703.271,-18702.068,-18709.232,-18692.44,-18677.299,-18694.99,-18709.227,-18699.963,-18693.145,-18698.03
-18703.074,-18702.625,-18698.58,-18698.627,-18703.686,-18701.113,-18697.604,-18698.152,-18697.373,-18702.771,-18701.36,-18698.076,-18702.664,-18698.174,-18701.357,-18709.957,-18711.418,-18717.982,-18708.146,-18688.367,-18692.83,-18702.324,-18701.424,-18703.807,-18706.662
-18707.902,-18708.104,-18708.889,-18710.223,-18706.775,-18711.154,-18709.82,-18699.441,-18701.148,-18694.66,-18691.943,-18699.633,-18695.924,-18698.482,-18696.592,-18691.363,-18701.143,-18705.645,-18707.107,-18708.332,-18707.955,-18710.664,-18700.848,-18695.857,-18710.146
-18709.922,-18702.86,-18709.24,-18715.408,-18721.377,-18711.059,-18694.594,-18701.014,-18706.998,-18705.867,-18704.441,-18699.248,-18699.271,-18705.818,-18702.523,-18690.248,-18689.184,-18693.29,-18701.64,-18712.182,-18715.332,-18720.098,-18717.068,-18700.57,-18686.918
-18694.701,-18704.799,-18694.002,-18692.492,-18696.256,-18700.588,-18712.703,-18707.514,-18700.436,-18698.336,-18702.564,-18706.371,-18689.664,-18692.508,-18710.031,-18706.98,-18699.264,-18695.457,-18685.984,-18689.508,-18712.291,-18702.627,-18686.46,-18693.17,-18689.219
-18697.572,-18703.24,-18699.598,-18706.885,-18697.76,-18690.86,-18693.4,-18688.812,-18689.97,-18696.268,-18699.275,-18699.45,-18702.344,-18698.5,-18692.898,-18695.959,-18696.953,-18702.67,-18707.19,-18706.531,-18710.232,-18710.344,-18712.863,-18716.473,-18715.594
-18709.494,-18695.56,-18690.557,-18692.73,-18694.52,-18688.818,-18676.744,-18681.969,-18685.027,-18684.908,-18697.223,-18696.57,-18696.451,-18700.29,-18689.148,-18680.416,-18679.77,-18682.281,-18684.408,-18688.242,-18693.229,-18688.508,-18678.887,-18675.158,-18685.824
-18692.867,-18685.904,-18683.998,-18682.602,-18682.262,-18688.922,-18696.875,-18697.062,-18687.977,-18683.16,-18680.65,-18681.768,-18683.996,-18684.463,-18689.326,-18688.121,-18688.293,-18684.55,-18670.828,-18674.795,-18684.635,-18681.855,-18678.748,-18679.54,-18683.756
-18686.27,-18683.232,-18681.283,-18679.834,-18674.607,-18675.49,-18681.98,-18679.87,-18675.752,-18677.41,-18679.877,-18681.85,-18679.746,-18679.4,-18683.389,-18677.441,-18673.184,-18682.395,-18690.92,-18692.066,-18685.398,-18681.303,-18680.348,-18676.229,-18674.01
-18671.5,-18674.625,-18675.848,-18672.68,-18677.088,-18673.238,-18662.469,-18657.2,-18660.744,-18673.512,-18680.174,-18674.75,-18664.412,-18663.797,-18669.643,-18666.281,-18665.377,-18670.195,-18671.451,-18670.895,-18662.36,-18654.29,-18662.432,-18667.227,-18670.926
-18681.06,-18669.256,-18659.02,-18665.16,-18663.322,-18665.893,-18664.643,-18656.879,-18660.6,-18662.613,-18660.568,-18662.367,-18664.615,-18664.424,-18655.346,-18646.072,-18652.885,-18651.633,-18641.871,-18644.84,-18641.389,-18643.725,-18656.531,-18661.928,-18662.852
-18657.906,-18659.08,-18660.031,-18655.916,-18653.828,-18647.438,-18648.053,-18653.865,-18654.082,-18653.547,-18655.156,-18654.422,-18644.244,-18634.043,-18646.793,-18660.604,-18652.072,-18654.97,-18663.809,-18665.988,-18664.262,-18653.363,-18664.795,-18671.81,-18651.188
-18644.672,-18647.678,-18649.885,-18655.457,-18656.168,-18654.955,-18655.54,-18653.387,-18656.393,-18661.795,-18654.098,-18649.254,-18647.637,-18647.18,-18660.482,-18659.438,-18642.104,-18640.295,-18649.78,-18650.875,-18648.47,-18656.055,-18661.12,-18662.18,-18669.598
-18672.316,-18666.643,-18660.6,-18653.81,-18645.828,-18645.137,-18648.592,-18656.283,-18665.03,-18657.71,-18649.633,-18650.66,-18654.762,-18656.014,-18652.895,-18660.805,-18661.52,-18656.158,-18656.725,-18651.441,-18661.77,-18674.928,-18674.613,-18676.215,-18671.559
-18668.316,-18670.658,-18662.69,-18654.63,-18665.502,-18674.426,-18665.188,-18656.35,-18654.205,-18661.324,-18670.371,-18675.693,-18684.598,-18689.668,-18676.895,-18663.65,-18682.078,-18692.105,-18682.69,-18691.168,-18689.691,-18679.326,-18682.955,-18690.86,-18691.191
-18682.12,-18676.54,-18680.959,-18691.92,-18689.299,-18687.135,-18695.201,-18687.473,-18678.582,-18670.895,-18665.336,-18668.53,-18667.299,-18673.74,-18677.982,-18658.64,-18644.852,-18665.36,-18688.459,-18687.242,-18672.602,-18657.832,-18658.385,-18658.258,-18652.832
-18654.525,-18655.254,-18661.592,-18666.469,-18670.945,-18668.523,-18649.611,-18661.441,-18685.55,-18677.379,-18668.32,-18670.703,-18671.965,-18670.29,-18677.7,-18685.504,-18676.844,-18676.576,-18687.23,-18684.707,-18670.213,-18673.096,-18684.982,-18680.861,-18678.115
-18668.188,-18667.025,-18677.19,-18673.031,-18679.32,-18676.383,-18668.002,-18669.11,-18661.953,-18658.62,-18651.418,-18662.092,-18677.586,-18667.363,-18669.938,-18675.414,-18674.385,-18680.475,-18671.916,-18660.738,-18669.502,-18670.816,-18667.342,-18674.344,-18670.139
-18670.543,-18681.178,-18684.521,-18679.205,-18676.016,-18686.297,-18676.205,-18660.117,-18681.324,-18696.293,-18678.527,-18671.61,-18674.693,-18664.066,-18677.33,-18690.861,-18673.014,-18674.266,-18680.799,-18680.447,-18684.041,-18682.043,-18688.043,-18681.498,-18674.697
-18681.99,-18670.488,-18661.158,-18664.98,-18669.08,-18680.604,-18688.156,-18681.203,-18675.764,-18675.982,-18674.484,-18680.328,-18685.564,-18687.197,-18692.432,-18689.318,-18683.127,-18680.396,-18680.74,-18686.135,-18686.986,-18682.133,-18679.203,-18687.059,-18695.223
