0.0,-823.0541,-5625.332,-14064.671,-17672.633,-15918.247,-16262.814,-16271.926,-15677.623,-16719.875,-16431.764,-17002.129,-17644.377,-17621.008,-18519.236,-18372.049,-18799.61,-18994.168,-18710.564,-18922.332,-18317.225,-18119.12,-17620.97,-17150.223,-16954.178
-16444.537,-16441.164,-16220.743,-16294.322,-16465.31,-16583.191,-17044.562,-17289.756,-17742.146,-18131.547,-18435.27,-18680.184,-18683.594,-18708.297,-18537.506,-18340.988,-18045.332,-17658.182,-17363.125,-17021.625,-16756.578,-16563.605,-16498.156,-16529.723,-16624.809
-16816.393,-17019.535,-17340.227,-17701.367,-18012.957,-18246.277,-18380.785,-18474.502,-18434.242,-18316.348,-18137.906,-17863.797,-17590.016,-17295.75,-17074.584,-16937.135,-16734.758,-16629.973,-16738.809,-16860.762,-16957.697,-17136.844,-17381.928,-17658.312,-17880.967
-18042.686,-18216.668,-18306.406,-18265.105,-18162.422,-18023.15,-17829.771,-17591.008,-17353.395,-17138.164,-16963.268,-16822.623,-16739.455,-16749.414,-16861.533,-17039.316,-17195.432,-17394.037,-17652.223,-17876.81,-18050.59,-18144.584,-18207.736,-18222.955,-18100.344
-17906.258,-17724.21,-17581.854,-17422.021,-17223.723,-17062.068,-16969.33,-16972.604,-17006.205,-17033.22,-17143.057,-17293.184,-17448.54,-17627.629,-17778.338,-17913.72,-18010.893,-18013.184,-17955.8,-17870.098,-17779.232,-17654.627,-17503.357,-17426.934,-17348.486
-17233.285,-17181.988,-17140.793,-17132.566,-17156.049,-17206.623,-17382.5,-17520.16,-17592.377,-17692.404,-17764.719,-17854.154,-17916.855,-17932.645,-17880.146,-17763.412,-17680.975,-17529.549,-17395.986,-17350.555,-17316.371,-17335.76,-17274.096,-17207.998,-17235.193
-17266.37,-17354.475,-17450.637,-17549.766,-17628.559,-17656.229,-17677.072,-17681.695,-17704.895,-17678.936,-17632.496,-17585.7,-17508.346,-17486.736,-17431.854,-17376.006,-17391.691,-17388.139,-17356.795,-17318.908,-17356.781,-17448.78,-17502.781,-17574.182,-17653.756
-17668.635,-17661.668,-17661.412,-17628.28,-17596.871,-17588.74,-17589.232,-17577.205,-17509.54,-17442.28,-17406.266,-17371.094,-17359.04,-17380.14,-17435.555,-17475.215,-17463.543,-17465.197,-17495.895,-17561.746,-17628.725,-17592.111,-17546.324,-17579.42,-17582.688
-17547.04,-17511.691,-17482.617,-17504.121,-17540.11,-17510.525,-17454.307,-17437.074,-17444.006,-17454.463,-17444.7,-17442.941,-17486.996,-17537.137,-17577.725,-17567.455,-17501.01,-17455.35,-17424.02,-17401.248,-17439.531,-17496.777,-17500.756,-17493.598,-17485.348
-17467.117,-17497.55,-17554.594,-17614.78,-17649.264,-17614.055,-17556.566,-17474.982,-17430.898,-17437.719,-17385.098,-17382.62,-17425.227,-17447.283,-17506.178,-17498.988,-17483.42,-17501.066,-17503.377,-17552.264,-17561.555,-17550.51,-17553.172,-17529.012,-17519.541
-17490.002,-17472.523,-17463.684,-17418.719,-17392.209,-17399.55,-17423.594,-17410.031,-17409.135,-17511.088,-17602.562,-17580.18,-17527.607,-17530.926,-17526.297,-17515.688,-17540.941,-17526.768,-17546.87,-17630.477,-17630.467,-17555.79,-17486.107,-17467.062,-17484.02
-17450.5,-17363.861,-17318.605,-17343.244,-17383.818,-17421.885,-17444.984,-17468.518,-17489.863,-17509.564,-17553.152,-17549.91,-17539.607,-17597.06,-17649.656,-17624.844,-17545.227,-17508.268,-17479.402,-17423.8,-17435.395,-17484.816,-17462.264,-17387.592,-17357.398
-17353.578,-17367.078,-17417.656,-17443.438,-17487.762,-17564.89,-17609.34,-17632.371,-17636.574,-17615.338,-17559.02,-17523.54,-17512.38,-17457.332,-17423.287,-17386.025,-17350.676,-17402.69,-17430.477,-17429.502,-17458.455,-17452.832,-17439.361,-17461.156,-17498.518
-17509.295,-17500.736,-17522.086,-17533.135,-17507.332,-17513.709,-17554.53,-17541.736,-17516.646,-17514.549,-17427.19,-17340.29,-17369.5,-17412.734,-17422.494,-17419.377,-17459.08,-17560.422,-17597.768,-17557.855,-17518.795,-17532.988,-17580.367,-17536.514,-17473.066
-17456.65,-17446.02,-17467.654,-17442.027,-17413.938,-17432.17,-17427.549,-17463.383,-17496.68,-17442.936,-17352.768,-17355.066,-17464.844,-17516.043,-17490.74,-17486.63,-17548.275,-17620.936,-17637.51,-17597.625,-17502.668,-17467.531,-17506.662,-17498.438,-17457.908
-17415.379,-17383.584,-17375.34,-17393.139,-17427.678,-17453.592,-17506.21,-17566.705,-17577.17,-17572.672,-17596.23,-17601.082,-17547.045,-17519.62,-17523.35,-17463.523,-17411.621,-17462.197,-17506.564,-17436.629,-17341.553,-17329.781,-17406.977,-17479.373,-17466.006
-17427.934,-17410.166,-17425.633,-17473.76,-17519.064,-17528.81,-17492.328,-17490.875,-17522.771,-17528.688,-17507.965,-17495.701,-17521.275,-17521.248,-17554.752,-17593.16,-17500.998,-17406.506,-17354.486,-17311.854,-17339.014,-17384.297,-17429.562,-17490.686,-17517.486
-17550.656,-17558.14,-17501.91,-17499.938,-17473.494,-17432.004,-17507.936,-17561.96,-17544.523,-17467.568,-17390.426,-17420.457,-17405.365,-17388.805,-17521.568,-17586.346,-17513.67,-17471.71,-17440.729,-17427.795,-17477.193,-17491.922,-17492.98,-17519.22,-17529.135
-17524.82,-17486.436,-17449.082,-17444.72,-17458.033,-17453.422,-17387.51,-17324.598,-17311.77,-17352.076,-17405.74,-17427.545,-17469.596,-17505.006,-17522.922,-17566.518,-17586.404,-17584.88,-17576.588,-17515.908,-17468.977,-17523.203,-17550.365,-17455.74,-17382.525
-17393.754,-17418.188,-17438.209,-17427.785,-17391.79,-17386.205,-17387.408,-17424.234,-17523.283,-17580.967,-17602.057,-17569.164,-17445.229,-17417.906,-17474.979,-17487.488,-17522.203,-17510.373,-17461.447,-17463.113,-17447.25,-17423.887,-17392.408,-17379.06,-17402.865
-17438.107,-17495.275,-17504.227,-17505.291,-17495.305,-17452.037,-17482.832,-17506.139,-17489.547,-17496.242,-17506.191,-17548.672,-17552.965,-17439.52,-17349.865,-17338.438,-17341.877,-17394.547,-17435.268,-17419.387,-17435.477,-17506.61,-17567.125,-17567.502,-17552.818
-17513.97,-17482.465,-17520.709,-17538.445,-17531.572,-17503.898,-17431.953,-17396.89,-17444.531,-17540.94,-17559.207,-17500.125,-17490.27,-17494.08,-17445.53,-17385.434,-17389.88,-17428.32,-17422.68,-17422.15,-17478.602,-17540.992,-17552.193,-17541.545,-17532.463
-17499.45,-17446.793,-17409.85,-17417.82,-17435.28,-17451.137,-17438.258,-17381.225,-17388.94,-17429.746,-17428.281,-17430.99,-17462.193,-17513.879,-17558.53,-17578.5,-17538.371,-17509.668,-17560.951,-17577.893,-17542.293,-17488.068,-17427.639,-17403.68,-17405.52
-17393.691,-17354.287,-17392.287,-17514.549,-17547.857,-17481.197,-17451.207,-17473.717,-17432.584,-17374.299,-17405.61,-17431.58,-17428.857,-17428.4,-17418.676,-17456.342,-17497.031,-17478.256,-17448.615,-17452.95,-17495.768,-17515.82,-17489.28,-17465.285,-17440.81
-17437.338,-17454.684,-17419.469,-17424.938,-17494.555,-17519.908,-17574.93,-17600.436,-17519.365,-17458.012,-17437.723,-17437.068,-17422.172,-17397.87,-17415.559,-17451.36,-17469.977,-17453.4,-17452.602,-17456.521,-17449.086,-17472.32,-17461.105,-17410.398,-17387.37
-17424.34,-17462.742,-17449.553,-17466.094,-17516.45,-17542.564,-17527.898,-17497.484,-17456.559,-17438.69,-17496.53,-17510.059,-17513.467,-17547.902,-17499.828,-17453.705,-17453.209,-17487.37,-17494.217,-17458.758,-17481.082,-17493.244,-17508.016,-17508.547,-17458.635
-17453.52,-17471.172,-17505.152,-17532.836,-17516.22,-17475.717,-17436.824,-17439.492,-17484.043,-17506.852,-17485.623,-17502.232,-17489.717,-17456.06,-17500.893,-17507.893,-17464.094,-17434.633,-17478.16,-17527.771,-17460.643,-17411.824,-17459.643,-17575.65,-17602.05
-17494.334,-17483.35,-17474.682,-17418.81,-17435.936,-17457.404,-17518.895,-17541.66,-17483.168,-17475.93,-17464.965,-17474.668,-17529.848,-17556.414,-17548.037,-17505.01,-17495.213,-17521.61,-17558.45,-17574.578,-17514.24,-17466.934,-17444.117,-17412.408,-17395.695
-17405.291,-17473.846,-17503.324,-17477.553,-17468.62,-17443.379,-17462.488,-17492.15,-17465.426,-17484.062,-17515.617,-17502.52,-17488.727,-17467.662,-17428.0,-17390.455,-17421.117,-17480.664,-17498.926,-17512.377,-17469.293,-17440.875,-17491.502,-17498.938,-17508.615
-17535.635,-17514.502,-17468.514,-17445.533,-17470.096,-17475.975,-17444.383,-17416.035,-17422.629,-17442.297,-17439.934,-17448.9,-17453.666,-17449.18,-17440.621,-17463.947,-17560.041,-17624.803,-17589.166,-17501.852,-17483.668,-17503.086,-17458.986,-17466.207,-17474.107
-17424.1,-17426.213,-17416.207,-17402.615,-17444.045,-17484.076,-17522.717,-17550.984,-17537.094,-17498.633,-17467.773,-17475.41,-17492.832,-17449.549,-17370.438,-17319.307,-17349.664,-17408.338,-17406.736,-17449.014,-17487.492,-17433.904,-17442.066,-17507.71,-17534.766
-17527.555,-17489.908,-17456.754,-17465.025,-17479.494,-17457.566,-17452.76,-17482.85,-17476.516,-17485.465,-17535.936,-17548.912,-17597.951,-17647.81,-17578.94,-17508.982,-17475.87,-17451.783,-17467.518,-17468.95,-17464.725,-17480.914,-17480.7,-17479.139,-17481.527
-17473.379,-17468.1,-17463.445,-17458.336,-17452.078,-17435.36,-17428.893,-17450.686,-17468.059,-17448.203,-17415.469,-17423.873,-17491.344,-17573.17,-17628.373,-17634.188,-17628.69,-17651.04,-17592.041,-17482.562,-17457.18,-17445.287,-17403.121,-17376.242,-17398.172
-17428.918,-17412.352,-17426.248,-17482.451,-17538.752,-17580.043,-17571.457,-17523.486,-17473.568,-17481.291,-17483.172,-17447.184,-17488.537,-17544.402,-17529.992,-17484.967,-17470.506,-17514.355,-17545.936,-17549.89,-17569.725,-17577.791,-17510.291,-17453.055,-17495.549
-17488.533,-17454.906,-17502.918,-17524.54,-17516.674,-17498.955,-17464.816,-17437.791,-17422.19,-17499.28,-17578.826,-17539.797,-17476.559,-17436.576,-17429.85,-17416.818,-17362.107,-17362.867,-17408.205,-17425.555,-17435.154,-17448.547,-17456.059,-17455.824,-17480.027
-17492.3,-17468.184,-17474.184,-17443.16,-17381.78,-17362.54,-17367.072,-17444.312,-17500.592,-17466.28,-17448.893,-17468.85,-17500.188,-17486.256,-17429.967,-17421.531,-17476.186,-17483.133,-17412.867,-17390.47,-17373.002,-17346.729,-17399.525,-17425.105,-17398.059
-17419.59,-17487.268,-17509.176,-17454.924,-17430.736,-17436.854,-17417.361,-17442.918,-17491.822,-17469.06,-17434.234,-17448.105,-17462.36,-17508.842,-17550.363,-17497.3,-17464.016,-17487.0,-17514.049,-17522.676,-17483.762,-17453.648,-17460.697,-17509.996,-17524.63
-17469.543,-17448.521,-17429.361,-17393.094,-17379.088,-17390.82,-17421.37,-17451.287,-17477.586,-17457.744,-17449.463,-17507.572,-17525.53,-17487.45,-17466.197,-17442.758,-17411.412,-17438.734,-17472.156,-17487.137,-17544.67,-17540.273,-17472.756,-17453.857,-17429.244
-17402.885,-17426.613,-17459.203,-17467.764,-17483.857,-17548.102,-17578.95,-17536.184,-17513.287,-17559.557,-17599.473,-17535.734,-17454.295,-17433.293,-17413.084,-17366.326,-17358.078,-17420.314,-17448.46,-17449.783,-17478.45,-17509.793,-17510.682,-17474.682,-17497.65
-17508.818,-17476.03,-17519.43,-17554.549,-17539.064,-17504.139,-17479.926,-17495.135,-17485.36,-17469.912,-17460.822,-17467.818,-17529.15,-17551.945,-17501.898,-17479.338,-17503.568,-17487.264,-17447.072,-17427.916,-17407.549,-17397.957,-17394.406,-17414.365,-17433.479
-17438.334,-17472.402,-17484.59,-17483.334,-17505.152,-17535.268,-17547.48,-17520.91,-17515.219,-17547.943,-17541.344,-17471.816,-17464.566,-17521.19,-17514.252,-17464.254,-17381.48,-17339.91,-17402.76,-17469.7,-17499.508,-17472.637,-17450.219,-17470.75,-17453.95
-17438.873,-17436.11,-17394.594,-17370.37,-17447.69,-17579.66,-17601.014,-17564.086,-17567.812,-17496.086,-17421.188,-17420.145,-17438.406,-17492.33,-17468.123,-17418.031,-17457.408,-17485.85,-17496.254,-17483.383,-17472.076,-17491.773,-17491.947,-17475.324,-17438.129
-17426.105,-17447.13,-17450.236,-17438.955,-17427.488,-17440.086,-17439.629,-17436.115,-17485.504,-17498.377,-17463.936,-17486.635,-17534.06,-17560.504,-17571.725,-17538.324,-17484.922,-17449.893,-17449.064,-17483.148,-17509.959,-17571.162,-17614.602,-17532.178,-17475.508
-17461.799,-17412.525,-17414.305,-17466.486,-17547.162,-17551.049,-17474.178,-17466.055,-17469.06,-17463.697,-17470.172,-17451.459,-17428.633,-17416.166,-17407.61,-17411.26,-17468.027,-17507.4,-17512.947,-17536.014,-17489.797,-17438.055,-17496.701,-17580.547,-17574.887
-17499.018,-17463.691,-17486.2,-17505.383,-17462.564,-17398.262,-17427.545,-17515.992,-17541.1,-17507.996,-17494.99,-17459.123,-17425.732,-17493.158,-17516.137,-17439.54,-17403.523,-17406.254,-17423.088,-17437.717,-17426.066,-17440.77,-17460.936,-17464.725,-17498.465
-17535.512,-17562.113,-17560.488,-17528.975,-17540.248,-17525.977,-17447.428,-17438.502,-17473.555,-17465.742,-17483.225,-17496.363,-17461.145,-17486.615,-17539.076,-17541.037,-17512.918,-17484.45,-17503.055,-17464.809,-17394.176,-17412.365,-17410.762,-17404.965,-17429.379
-17483.43,-17578.805,-17593.045,-17530.227,-17451.623,-17419.03,-17448.717,-17481.594,-17498.867,-17482.746,-17500.582,-17519.309,-17510.018,-17533.49,-17535.871,-17541.688,-17559.027,-17532.375,-17479.107,-17450.834,-17445.932,-17420.75,-17404.098,-17409.102,-17462.412
-17535.418,-17531.852,-17508.031,-17516.691,-17494.248,-17439.107,-17414.504,-17433.48,-17488.31,-17521.947,-17552.28,-17590.316,-17529.893,-17511.787,-17556.12,-17514.016,-17497.549,-17508.12,-17491.17,-17498.215,-17498.562,-17489.121,-17512.14,-17504.893,-17452.8
-17466.375,-17507.557,-17495.91,-17466.365,-17466.58,-17487.49,-17474.053,-17467.582,-17484.1,-17458.773,-17429.062,-17434.762,-17451.404,-17500.307,-17593.408,-17672.865,-17671.803,-17575.293,-17475.736,-17436.742,-17434.764,-17465.455,-17450.494,-17404.814,-17449.81
-17496.445,-17519.676,-17567.889,-17545.582,-17505.932,-17492.219,-17452.035,-17450.48,-17449.48,-17427.17,-17470.188,-17500.668,-17490.621,-17523.65,-17527.764,-17479.83,-17508.33,-17563.113,-17529.047,-17497.957,-17509.832,-17489.467,-17471.355,-17511.78,-17531.896
-17479.08,-17448.414,-17458.129,-17478.44,-17501.012,-17471.19,-17483.133,-17559.88,-17561.361,-17535.844,-17505.293,-17458.268,-17439.678,-17409.861,-17453.564,-17540.459,-17561.902,-17599.758,-17602.213,-17551.855,-17512.316,-17469.65,-17439.97,-17432.113,-17464.51
-17470.977,-17438.666,-17436.986,-17450.457,-17513.012,-17576.887,-17566.45,-17551.479,-17548.145,-17503.47,-17453.94,-17443.047,-17441.998,-17467.18,-17473.783,-17440.098,-17446.045,-17433.416,-17419.51,-17500.643,-17606.232,-17651.809,-17598.697,-17512.613,-17484.682
-17462.3,-17462.143,-17488.535,-17467.496,-17463.086,-17463.777,-17444.9,-17451.812,-17446.205,-17467.457,-17507.361,-17524.025,-17585.477,-17660.352,-17628.121,-17509.402,-17462.465,-17468.75,-17439.666,-17453.896,-17502.15,-17517.506,-17536.893,-17530.73,-17506.375
-17533.545,-17517.014,-17473.703,-17489.312,-17493.936,-17493.943,-17496.738,-17499.262,-17499.178,-17509.977,-17540.475,-17479.744,-17433.43,-17467.56,-17471.22,-17510.977,-17542.107,-17523.64,-17521.145,-17510.266,-17496.674,-17474.645,-17474.635,-17515.537,-17525.725
-17494.656,-17483.37,-17507.754,-17524.168,-17561.049,-17591.71,-17543.152,-17478.926,-17439.793,-17454.244,-17539.592,-17552.455,-17451.691,-17419.479,-17492.836,-17572.14,-17644.068,-17653.37,-17550.992,-17465.053,-17468.746,-17476.424,-17486.775,-17501.248,-17495.162
-17494.074,-17470.256,-17445.79,-17450.238,-17462.842,-17497.502,-17549.691,-17571.951,-17534.27,-17497.914,-17520.71,-17542.275,-17503.168,-17475.002,-17468.21,-17425.697,-17437.36,-17499.227,-17517.348,-17518.365,-17497.268,-17458.93,-17465.758,-17499.113,-17520.266
-17515.283,-17478.184,-17474.797,-17509.023,-17510.688,-17508.646,-17509.836,-17476.217,-17456.06,-17470.201,-17486.182,-17539.613,-17599.693,-17548.836,-17462.305,-17486.473,-17535.615,-17520.371,-17484.283,-17443.701,-17482.85,-17581.86,-17569.357,-17526.676,-17563.22
-17570.652,-17527.264,-17503.93,-17485.67,-17459.783,-17450.338,-17439.803,-17455.73,-17523.428,-17571.75,-17570.361,-17541.465,-17502.082,-17465.33,-17451.271,-17466.838,-17475.838,-17485.412,-17504.668,-17513.4,-17500.885,-17472.434,-17479.857,-17497.857,-17496.643
-17525.752,-17575.453,-17578.762,-17529.123,-17497.361,-17463.348,-17439.357,-17473.162,-17523.969,-17590.688,-17614.87,-17570.848,-17471.22,-17424.594,-17526.418,-17545.5,-17512.18,-17542.465,-17523.447,-17529.766,-17519.207,-17469.3,-17485.994,-17478.934,-17426.451
-17423.176,-17465.225,-17509.104,-17516.348,-17469.586,-17459.273,-17474.998,-17467.736,-17491.627,-17519.383,-17553.8,-17562.764,-17568.31,-17589.338,-17527.824,-17481.371,-17420.512,-17370.744,-17458.213,-17493.895,-17492.174,-17500.588,-17461.777,-17472.865,-17498.135
-17518.96,-17530.348,-17527.861,-17570.348,-17578.354,-17548.635,-17536.18,-17504.293,-17462.145,-17473.436,-17514.922,-17499.145,-17463.664,-17447.24,-17472.613,-17552.748,-17571.377,-17535.111,-17505.88,-17471.229,-17507.348,-17553.861,-17519.584,-17505.984,-17503.902
-17495.912,-17540.383,-17609.934,-17652.139,-17577.352,-17471.307,-17463.955,-17469.312,-17501.5,-17534.66,-17521.826,-17535.56,-17504.229,-17465.12,-17492.91,-17531.824,-17521.506,-17451.2,-17439.074,-17425.814,-17414.139,-17472.74,-17474.123,-17475.652,-17508.86
-17548.963,-17573.943,-17550.9,-17569.496,-17574.44,-17544.61,-17526.285,-17521.973,-17545.742,-17585.717,-17640.979,-17600.75,-17497.455,-17454.98,-17440.012,-17446.945,-17452.139,-17461.629,-17489.336,-17500.592,-17493.564,-17482.51,-17484.523,-17480.62,-17454.992
-17429.916,-17454.268,-17502.81,-17542.656,-17551.164,-17483.865,-17494.326,-17587.562,-17575.957,-17512.963,-17496.982,-17529.676,-17578.02,-17630.775,-17630.85,-17517.08,-17449.174,-17505.361,-17515.137,-17445.678,-17443.148,-17490.762,-17510.469,-17520.264,-17506.504
-17503.484,-17509.154,-17490.928,-17488.361,-17504.416,-17519.693,-17507.217,-17508.01,-17543.37,-17560.793,-17551.174,-17528.707,-17530.973,-17518.969,-17509.693,-17566.281,-17582.023,-17539.016,-17487.908,-17461.736,-17490.686,-17498.438,-17513.951,-17520.469,-17460.09
-17423.758,-17387.049,-17395.156,-17508.115,-17583.938,-17580.574,-17565.887,-17561.268,-17524.584,-17495.871,-17508.924,-17477.248,-17473.271,-17532.77,-17529.291,-17513.018,-17530.168,-17524.307,-17521.2,-17516.807,-17525.195,-17561.209,-17543.896,-17486.34,-17458.059
-17435.309,-17410.041,-17433.434,-17460.688,-17456.318,-17472.05,-17491.424,-17518.059,-17540.426,-17541.71,-17577.36,-17597.818,-17525.488,-17450.68,-17454.8,-17468.898,-17513.418,-17536.412,-17502.625,-17545.969,-17531.234,-17494.572,-17522.525,-17467.98,-17475.83
-17526.64,-17503.656,-17494.744,-17493.086,-17506.693,-17512.164,-17477.873,-17455.854,-17474.36,-17510.217,-17541.748,-17538.959,-17502.02,-17495.309,-17509.078,-17528.756,-17519.947,-17470.357,-17471.033,-17486.318,-17485.94,-17510.021,-17510.6,-17496.436,-17513.734
-17544.162,-17562.94,-17528.95,-17450.486,-17398.902,-17411.055,-17462.898,-17475.312,-17444.361,-17410.71,-17404.871,-17490.355,-17615.635,-17675.379,-17646.086,-17564.064,-17518.598,-17533.17,-17496.271,-17412.867,-17408.965,-17434.63,-17447.645,-17475.457,-17495.828
-17512.375,-17491.156,-17483.877,-17531.965,-17558.021,-17540.951,-17479.678,-17458.033,-17458.203,-17406.646,-17427.465,-17451.434,-17431.287,-17478.91,-17497.992,-17497.523,-17498.633,-17447.586,-17443.844,-17489.127,-17524.418,-17508.748,-17444.367,-17396.865,-17420.664
-17527.133,-17553.406,-17525.725,-17569.193,-17549.842,-17492.822,-17470.492,-17457.674,-17478.002,-17489.047,-17484.955,-17482.98,-17476.695,-17455.203,-17424.19,-17416.838,-17409.742,-17399.945,-17411.754,-17461.092,-17491.37,-17480.834,-17480.756,-17445.121,-17452.836
-17487.35,-17458.107,-17492.156,-17521.953,-17526.494,-17566.35,-17586.484,-17662.783,-17700.771,-17592.36,-17462.193,-17386.168,-17335.787,-17309.94,-17373.354,-17426.244,-17445.133,-17514.291,-17514.82,-17477.164,-17472.654,-17445.994,-17437.205,-17450.473,-17459.926
-17461.23,-17469.455,-17494.39,-17491.35,-17471.543,-17462.045,-17464.129,-17526.037,-17615.922,-17620.389,-17573.395,-17524.871,-17481.545,-17471.709,-17465.436,-17492.605,-17484.982,-17452.129,-17506.035,-17489.201,-17464.016,-17492.967,-17436.217,-17412.365,-17404.963
-17347.084,-17354.6,-17443.762,-17553.455,-17613.238,-17593.584,-17518.787,-17462.053,-17468.092,-17521.86,-17588.127,-17586.934,-17549.725,-17516.898,-17484.125,-17524.215,-17526.613,-17457.6,-17472.17,-17477.271,-17455.54,-17452.295,-17410.475,-17440.86,-17475.877
-17421.781,-17392.945,-17389.406,-17429.086,-17495.496,-17531.695,-17582.6,-17586.473,-17493.543,-17473.291,-17508.48,-17447.805,-17432.777,-17468.629,-17541.88,-17643.34,-17564.295,-17477.127,-17455.273,-17421.256,-17470.057,-17499.86,-17486.186,-17446.936,-17421.531
-17425.275,-17402.959,-17420.7,-17422.465,-17422.445,-17457.945,-17466.355,-17477.844,-17490.12,-17558.664,-17639.508,-17585.328,-17501.227,-17463.943,-17407.111,-17438.475,-17546.018,-17524.271,-17473.322,-17478.887,-17432.652,-17403.734,-17398.188,-17379.56,-17419.965
-17485.033,-17539.303,-17539.947,-17459.373,-17414.75,-17427.768,-17449.42,-17473.852,-17472.508,-17487.557,-17532.57,-17530.469,-17474.133,-17437.293,-17489.824,-17577.357,-17583.846,-17509.914,-17425.299,-17406.402,-17481.1,-17528.047,-17501.168,-17516.697,-17517.62
-17448.223,-17412.9,-17402.514,-17393.457,-17397.879,-17416.232,-17455.654,-17457.775,-17426.666,-17437.566,-17471.89,-17459.393,-17401.883,-17361.72,-17374.81,-17417.434,-17410.209,-17356.002,-17374.785,-17436.346,-17488.238,-17587.0,-17602.082,-17518.469,-17497.312
-17449.611,-17395.363,-17419.16,-17400.312,-17405.773,-17446.371,-17421.586,-17419.674,-17421.736,-17426.656,-17458.285,-17445.045,-17439.629,-17467.12,-17506.727,-17490.594,-17386.312,-17325.15,-17349.176,-17390.36,-17409.342,-17445.322,-17496.463,-17547.455,-17591.709
-17534.83,-17458.512,-17460.701,-17453.408,-17406.668,-17348.074,-17328.396,-17377.502,-17441.027,-17450.898,-17400.66,-17362.494,-17378.172,-17414.664,-17453.887,-17474.496,-17465.951,-17444.96,-17414.928,-17431.836,-17465.592,-17452.03,-17471.674,-17468.658,-17399.764
-17395.328,-17411.379,-17425.791,-17475.46,-17441.727,-17370.084,-17371.082,-17399.62,-17445.08,-17479.174,-17485.162,-17508.426,-17499.805,-17454.367,-17460.854,-17478.033,-17443.742,-17421.383,-17421.775,-17434.318,-17464.371,-17426.79,-17395.4,-17412.898,-17366.172
-17348.105,-17365.48,-17383.994,-17462.31,-17528.236,-17541.432,-17472.324,-17378.166,-17355.602,-17372.703,-17415.602,-17434.13,-17410.254,-17434.252,-17489.117,-17496.17,-17510.85,-17532.938,-17495.02,-17477.404,-17503.23,-17479.273,-17413.725,-17399.307,-17391.906
-17355.574,-17411.303,-17486.775,-17465.533,-17418.555,-17385.588,-17389.355,-17437.12,-17476.674,-17488.69,-17464.406,-17407.732,-17390.146,-17416.78,-17438.684,-17441.916,-17430.94,-17450.27,-17468.44,-17463.025,-17490.816,-17530.408,-17538.557,-17508.111,-17455.291
-17419.86,-17431.057,-17427.22,-17392.656,-17411.91,-17414.713,-17421.658,-17497.586,-17495.152,-17455.398,-17443.844,-17411.287,-17396.938,-17388.943,-17393.287,-17389.225,-17376.8,-17396.654,-17425.436,-17519.654,-17590.486,-17532.816,-17474.332,-17461.512,-17459.014
-17449.398,-17453.908,-17477.871,-17470.23,-17465.307,-17466.82,-17459.848,-17484.754,-17508.996,-17494.736,-17435.53,-17385.164,-17397.615,-17408.756,-17402.656,-17428.484,-17475.643,-17481.623,-17448.043,-17432.79,-17430.014,-17439.193,-17431.568,-17406.455,-17409.307
-17406.373,-17427.13,-17459.836,-17450.688,-17446.96,-17439.621,-17433.686,-17432.373,-17423.123,-17478.885,-17558.19,-17547.28,-17473.803,-17449.64,-17459.746,-17412.895,-17356.951,-17351.887,-17407.973,-17471.984,-17488.879,-17490.287,-17454.205,-17443.79,-17485.152
-17495.596,-17501.953,-17469.361,-17409.365,-17386.297,-17377.098,-17375.354,-17352.56,-17356.324,-17433.059,-17503.584,-17513.191,-17500.893,-17548.775,-17605.678,-17592.275,-17540.43,-17467.844,-17419.35,-17396.498,-17379.65,-17395.518,-17374.752,-17334.879,-17354.896
-17395.871,-17423.352,-17441.07,-17464.38,-17467.902,-17461.701,-17449.217,-17409.955,-17418.791,-17441.154,-17437.99,-17455.691,-17477.03,-17531.266,-17592.994,-17581.373,-17513.111,-17450.375,-17415.506,-17378.633,-17394.268,-17435.072,-17387.016,-17377.781,-17454.066
-17497.062,-17504.178,-17440.633,-17349.115,-17359.744,-17417.768,-17415.168,-17398.576,-17454.506,-17511.057,-17473.994,-17435.834,-17493.684,-17555.846,-17534.879,-17501.098,-17512.396,-17499.85,-17419.87,-17351.014,-17361.371,-17413.762,-17421.598,-17412.232,-17438.996
-17450.861,-17444.404,-17411.27,-17382.61,-17416.379,-17433.205,-17408.93,-17384.93,-17370.836,-17362.688,-17375.613,-17445.229,-17521.395,-17535.883,-17506.422,-17496.21,-17466.85,-17405.725,-17403.584,-17426.963,-17438.617,-17419.562,-17371.322,-17356.541,-17345.334
-17349.81,-17394.559,-17415.988,-17406.691,-17397.215,-17426.59,-17515.373,-17574.791,-17580.395,-17546.422,-17438.273,-17387.645,-17408.25,-17408.871,-17437.18,-17422.344,-17378.146,-17388.31,-17380.113,-17382.178,-17412.568,-17404.002,-17417.178,-17453.965,-17464.95
-17497.154,-17516.514,-17492.957,-17445.156,-17373.188,-17340.615,-17356.975,-17364.488,-17394.951,-17463.625,-17475.494,-17460.004,-17490.693,-17519.92,-17514.465,-17485.357,-17487.67,-17448.443,-17365.99,-17381.174,-17399.238,-17402.91,-17447.69,-17477.072,-17504.28
-17500.91,-17480.914,-17492.842,-17485.576,-17423.473,-17372.916,-17400.777,-17429.86,-17418.385,-17413.172,-17400.93,-17387.691,-17394.703,-17401.125,-17406.871,-17408.232,-17390.457,-17382.752,-17380.545,-17371.004,-17390.094,-17415.79,-17424.049,-17448.678,-17494.652
-17517.488,-17518.22,-17517.707,-17476.912,-17433.756,-17420.607,-17428.277,-17498.246,-17543.418,-17489.412,-17428.967,-17398.416,-17366.527,-17384.094,-17431.283,-17404.828,-17381.676,-17408.654,-17424.3,-17454.896,-17476.139,-17458.133,-17444.652,-17475.566,-17543.154
-17541.436,-17448.174,-17401.512,-17426.764,-17433.28,-17419.146,-17414.1,-17443.94,-17496.104,-17495.463,-17460.752,-17439.725,-17435.55,-17447.611,-17448.027,-17428.387,-17414.377,-17425.926,-17423.18,-17410.611,-17436.094,-17460.074,-17470.441,-17471.814,-17457.867
-17423.688,-17375.86,-17399.514,-17478.836,-17490.123,-17429.367,-17430.033,-17486.799,-17474.498,-17468.564,-17507.781,-17528.906,-17549.875,-17552.037,-17511.285,-17438.719,-17391.695,-17367.596,-17351.877,-17386.064,-17403.455,-17408.33,-17421.05,-17425.049,-17450.408
-17457.748,-17454.697,-17437.246,-17440.645,-17466.912,-17447.307,-17477.832,-17484.885,-17432.242,-17449.762,-17452.963,-17438.94,-17447.15,-17431.73,-17414.771,-17449.906,-17547.629,-17585.172,-17553.912,-17512.367,-17412.758,-17351.01,-17369.756,-17414.248,-17482.404
-17469.64,-17428.354,-17464.781,-17463.93,-17423.139,-17426.764,-17470.828,-17499.785,-17462.357,-17382.865,-17360.023,-17434.752,-17466.086,-17459.723,-17496.346,-17514.602,-17525.76,-17487.283,-17430.807,-17403.785,-17377.502,-17419.668,-17446.107,-17481.781,-17563.178
-17548.402,-17488.209,-17417.98,-17387.11,-17390.855,-17348.266,-17359.426,-17409.033,-17451.072,-17470.635,-17454.541,-17458.86,-17413.928,-17346.602,-17333.688,-17352.9,-17416.084,-17480.875,-17515.295,-17515.924,-17500.969,-17493.814,-17469.69,-17437.611,-17436.52
-17468.51,-17453.639,-17420.154,-17405.434,-17369.357,-17401.443,-17443.73,-17438.758,-17448.34,-17421.309,-17413.732,-17430.586,-17416.527,-17431.879,-17469.05,-17483.84,-17439.787,-17381.822,-17386.57,-17412.684,-17439.229,-17467.709,-17462.941,-17452.205,-17468.246
-17475.64,-17468.277,-17455.062,-17444.914,-17489.576,-17506.246,-17425.555,-17411.28,-17450.424,-17406.875,-17386.906,-17409.309,-17400.56,-17429.186,-17468.172,-17471.244,-17483.82,-17491.773,-17495.21,-17480.043,-17419.113,-17389.697,-17447.404,-17518.576,-17507.195
-17473.55,-17502.2,-17525.857,-17499.885,-17449.627,-17437.148,-17457.053,-17430.143,-17411.365,-17414.348,-17409.111,-17418.322,-17427.771,-17441.768,-17428.102,-17446.55,-17501.52,-17478.762,-17443.434,-17402.36,-17369.988,-17415.316,-17460.02,-17455.363,-17407.621
-17389.443,-17430.633,-17474.742,-17491.154,-17475.207,-17497.2,-17507.611,-17480.271,-17484.682,-17455.768,-17435.115,-17421.338,-17404.771,-17440.537,-17411.396,-17431.863,-17480.027,-17393.654,-17403.299,-17449.43,-17416.428,-17417.717,-17416.312,-17443.443,-17456.195
-17434.174,-17442.336,-17434.29,-17426.346,-17440.553,-17505.475,-17577.818,-17555.77,-17504.361,-17457.076,-17397.258,-17395.791,-17411.229,-17397.602,-17447.707,-17490.578,-17463.166,-17459.041,-17450.338,-17428.621,-17422.635,-17413.84,-17441.248,-17490.16,-17494.852
-17496.86,-17501.824,-17435.596,-17386.367,-17388.7,-17363.291,-17373.408,-17428.957,-17464.182,-17476.523,-17514.297,-17578.854,-17585.18,-17564.14,-17550.078,-17490.916,-17419.223,-17392.299,-17426.77,-17464.414,-17439.334,-17407.195,-17427.666,-17471.893,-17505.318
-17485.607,-17390.092,-17341.672,-17406.04,-17470.492,-17505.979,-17531.875,-17487.145,-17413.486,-17413.055,-17416.967,-17434.115,-17505.244,-17485.88,-17441.555,-17436.617,-17402.467,-17425.281,-17491.357,-17518.662,-17498.309,-17495.98,-17503.48,-17456.098,-17459.723
-17462.785,-17400.309,-17387.72,-17385.95,-17366.33,-17380.053,-17412.49,-17435.01,-17425.14,-17404.957,-17404.676,-17430.582,-17491.172,-17507.145,-17442.098,-17400.13,-17391.04,-17385.334,-17391.049,-17410.54,-17475.48,-17532.635,-17521.822,-17484.6,-17516.723
-17600.994,-17566.217,-17468.389,-17450.393,-17448.852,-17433.379,-17424.861,-17416.11,-17423.979,-17460.918,-17479.148,-17489.215,-17522.906,-17491.71,-17407.81,-17365.225,-17394.355,-17457.871,-17480.26,-17476.264,-17457.482,-17437.496,-17458.889,-17493.496,-17501.117
-17484.33,-17458.1,-17434.719,-17444.936,-17448.95,-17438.65,-17473.059,-17523.164,-17540.156,-17477.574,-17392.32,-17374.057,-17396.04,-17416.654,-17420.352,-17436.484,-17434.953,-17414.857,-17426.71,-17426.42,-17417.66,-17424.104,-17460.201,-17511.48,-17535.15
-17547.416,-17520.756,-17478.814,-17474.564,-17448.158,-17397.625,-17423.422,-17454.51,-17403.332,-17421.332,-17454.738,-17433.562,-17458.795,-17462.453,-17470.137,-17468.234,-17419.191,-17407.89,-17403.549,-17423.291,-17442.994,-17438.162,-17457.137,-17420.648,-17365.998
-17433.383,-17532.504,-17537.65,-17533.688,-17526.844,-17459.846,-17410.984,-17410.283,-17430.14,-17437.83,-17414.55,-17402.03,-17418.176,-17411.092,-17392.62,-17428.572,-17489.027,-17543.254,-17555.998,-17515.63,-17476.53,-17450.787,-17444.316,-17419.797,-17408.357
-17441.797,-17423.875,-17402.484,-17419.422,-17438.465,-17473.918,-17483.016,-17476.162,-17477.986,-17477.576,-17460.473,-17397.727,-17347.96,-17364.28,-17411.223,-17409.105,-17399.402,-17455.047,-17491.637,-17503.904,-17504.768,-17461.523,-17431.67,-17462.441,-17499.537
-17489.387,-17476.223,-17448.078,-17438.865,-17453.47,-17415.492,-17456.783,-17516.996,-17424.055,-17369.223,-17424.328,-17437.836,-17444.383,-17449.271,-17428.102,-17466.084,-17468.639,-17429.51,-17464.178,-17517.725,-17533.672,-17468.73,-17381.266,-17339.266,-17337.68
-17384.094,-17394.658,-17368.195,-17358.133,-17372.996,-17453.533,-17534.982,-17519.37,-17448.666,-17404.264,-17410.445,-17418.713,-17404.865,-17439.299,-17475.664,-17456.0,-17427.438,-17401.867,-17407.914,-17420.365,-17424.902,-17437.71,-17442.734,-17454.94,-17444.5
-17422.404,-17400.188,-17359.932,-17375.252,-17442.527,-17473.66,-17492.203,-17486.816,-17407.37,-17377.871,-17401.133,-17411.926,-17457.033,-17453.172,-17436.322,-17460.924,-17438.21,-17426.098,-17444.482,-17435.162,-17399.195,-17383.486,-17401.916,-17400.408,-17409.496
-17424.283,-17434.121,-17491.6,-17530.336,-17535.484,-17508.705,-17449.256,-17453.205,-17428.594,-17356.52,-17345.72,-17352.33,-17407.236,-17475.477,-17505.045,-17525.545,-17497.584,-17451.635,-17400.535,-17403.008,-17454.967,-17437.062,-17412.96,-17397.36,-17400.412
-17445.285,-17432.846,-17403.662,-17381.586,-17391.18,-17477.59,-17501.875,-17485.902,-17493.896,-17468.64,-17483.684,-17527.182,-17540.252,-17520.416,-17456.555,-17409.486,-17364.387,-17332.053,-17351.838,-17378.658,-17423.074,-17444.016,-17449.172,-17473.646,-17464.322
-17479.777,-17493.28,-17454.988,-17463.795,-17503.4,-17518.44,-17493.62,-17417.941,-17369.604,-17380.855,-17357.957,-17336.51,-17407.654,-17462.254,-17455.48,-17417.82,-17366.398,-17374.701,-17430.514,-17494.56,-17507.518,-17482.836,-17485.027,-17467.947,-17444.758
-17429.36,-17399.838,-17395.107,-17429.48,-17460.541,-17459.678,-17429.402,-17423.604,-17447.398,-17411.592,-17401.373,-17451.855,-17466.69,-17461.824,-17413.375,-17373.543,-17398.395,-17449.312,-17514.547,-17502.531,-17412.305,-17369.426,-17427.701,-17520.662,-17512.498
-17461.16,-17476.992,-17469.684,-17427.729,-17373.316,-17337.611,-17385.93,-17433.254,-17466.77,-17436.252,-17365.936,-17404.236,-17420.967,-17404.354,-17409.879,-17400.756,-17436.125,-17439.416,-17398.92,-17385.174,-17400.44,-17469.195,-17507.867,-17485.932,-17519.855
-17565.498,-17532.879,-17523.832,-17534.396,-17505.336,-17510.895,-17458.484,-17357.701,-17368.59,-17373.947,-17356.547,-17367.5,-17339.965,-17370.611,-17422.514,-17427.871,-17447.545,-17436.504,-17444.752,-17478.787,-17461.318,-17431.645,-17397.773,-17379.777,-17394.338
-17396.754,-17395.37,-17426.773,-17461.85,-17439.842,-17425.133,-17458.209,-17437.162,-17401.871,-17411.023,-17408.69,-17423.664,-17444.928,-17428.424,-17416.316,-17446.016,-17495.398,-17480.025,-17414.748,-17377.004,-17355.977,-17400.686,-17492.918,-17517.32,-17518.855
-17493.805,-17400.28,-17349.822,-17389.146,-17441.674,-17452.902,-17440.87,-17416.793,-17398.82,-17408.586,-17419.666,-17407.69,-17411.512,-17467.02,-17453.994,-17406.498,-17420.67,-17405.336,-17409.393,-17413.295,-17391.621,-17438.164,-17469.52,-17452.691,-17469.518
-17514.77,-17496.527,-17430.99,-17417.205,-17421.094,-17382.846,-17344.877,-17387.258,-17435.72,-17424.01,-17463.809,-17547.645,-17572.266,-17521.703,-17447.594,-17377.502,-17334.865,-17385.643,-17427.773,-17392.004,-17401.2,-17440.453,-17460.86,-17485.96,-17472.938
-17425.807,-17408.748,-17397.303,-17386.924,-17400.184,-17372.623,-17349.992,-17376.334,-17382.012,-17379.607,-17377.162,-17370.76,-17393.545,-17444.256,-17495.922,-17560.871,-17597.877,-17533.623,-17457.748,-17417.1,-17418.113,-17452.518,-17407.34,-17355.623,-17403.926
-17506.064,-17521.19,-17409.941,-17399.943,-17462.77,-17443.0,-17436.344,-17428.162,-17402.895,-17394.795,-17376.434,-17372.27,-17369.096,-17410.797,-17469.201,-17468.775,-17506.764,-17539.572,-17528.477,-17493.1,-17395.844,-17369.398,-17402.043,-17400.469,-17436.979
-17455.166,-17404.637,-17357.271,-17349.623,-17386.291,-17410.285,-17418.121,-17422.88,-17392.168,-17387.178,-17379.982,-17393.895,-17481.043,-17493.754,-17482.184,-17508.348,-17495.617,-17489.666,-17491.06,-17456.307,-17391.283,-17373.754,-17414.537,-17427.904,-17428.479
-17437.9,-17436.006,-17427.482,-17456.387,-17512.387,-17512.049,-17477.186,-17467.805,-17456.895,-17381.64,-17298.883,-17362.654,-17468.746,-17440.488,-17390.818,-17384.555,-17391.514,-17426.512,-17438.69,-17449.412,-17476.158,-17474.725,-17446.637,-17397.846,-17380.742
-17393.9,-17389.309,-17389.81,-17400.652,-17420.266,-17463.334,-17494.533,-17496.535,-17499.969,-17488.418,-17520.232,-17607.0,-17567.219,-17457.83,-17420.27,-17384.674,-17364.223,-17359.258,-17337.06,-17356.217,-17410.254,-17433.195,-17410.816,-17392.486,-17385.064
-17384.346,-17397.234,-17416.627,-17439.543,-17424.47,-17421.605,-17451.812,-17445.783,-17417.234,-17393.902,-17418.164,-17436.445,-17403.63,-17392.523,-17395.893,-17423.771,-17456.146,-17474.418,-17494.967,-17462.305,-17474.043,-17521.914,-17469.059,-17449.877,-17460.252
-17404.834,-17391.525,-17369.324,-17343.588,-17406.299,-17445.86,-17440.191,-17417.893,-17406.17,-17422.145,-17410.936,-17439.074,-17452.756,-17417.691,-17421.576,-17377.074,-17334.285,-17352.69,-17373.834,-17397.055,-17399.137,-17440.896,-17467.756,-17424.38,-17435.22
-17468.266,-17500.916,-17529.82,-17461.703,-17394.75,-17407.977,-17422.506,-17431.953,-17405.61,-17354.232,-17359.666,-17404.758,-17444.574,-17430.186,-17413.867,-17447.588,-17504.965,-17572.49,-17563.527,-17488.7,-17407.36,-17398.352,-17431.986,-17378.71,-17382.291
-17409.814,-17392.053,-17417.662,-17402.016,-17382.092,-17365.95,-17369.85,-17422.959,-17419.299,-17402.234,-17411.746,-17465.875,-17495.549,-17441.09,-17402.041,-17380.623,-17410.924,-17441.686,-17434.14,-17468.016,-17455.254,-17444.89,-17487.918,-17474.871,-17440.963
-17431.668,-17447.248,-17486.855,-17504.49,-17452.7,-17375.586,-17353.914,-17392.828,-17436.422,-17411.24,-17432.912,-17518.55,-17503.893,-17488.406,-17452.469,-17373.799,-17411.824,-17453.594,-17450.303,-17429.39,-17389.896,-17379.336,-17353.68,-17398.77,-17461.291
-17426.71,-17412.15,-17396.588,-17395.363,-17433.994,-17434.344,-17430.084,-17435.191,-17458.482,-17464.877,-17436.92,-17428.59,-17452.672,-17487.54,-17432.81,-17391.225,-17429.87,-17412.76,-17422.795,-17453.379,-17442.531,-17426.113,-17399.598,-17417.777,-17434.527
-17438.605,-17443.682,-17414.254,-17429.088,-17452.752,-17441.945,-17437.48,-17419.576,-17424.875,-17461.643,-17456.328,-17403.43,-17374.729,-17408.17,-17423.168,-17391.77,-17424.46,-17479.777,-17452.861,-17433.096,-17468.965,-17449.617,-17370.084,-17373.348,-17411.22
-17387.129,-17390.066,-17408.26,-17413.36,-17416.385,-17398.977,-17398.076,-17399.3,-17404.865,-17420.697,-17432.71,-17448.605,-17435.57,-17406.059,-17408.936,-17437.977,-17432.586,-17470.867,-17556.396,-17490.357,-17394.076,-17381.502,-17372.807,-17415.633,-17451.43
-17470.514,-17491.328,-17462.031,-17420.986,-17366.385,-17341.754,-17341.059,-17348.408,-17423.389,-17483.598,-17504.773,-17512.998,-17476.994,-17422.873,-17400.955,-17404.156,-17393.3,-17415.674,-17446.195,-17441.344,-17443.291,-17432.742,-17434.693,-17439.074,-17440.613
-17482.879,-17514.338,-17537.389,-17521.857,-17441.57,-17371.87,-17334.08,-17357.592,-17407.031,-17403.846,-17388.281,-17401.873,-17424.38,-17431.936,-17414.957,-17382.576,-17380.855,-17410.055,-17423.955,-17448.639,-17462.773,-17422.338,-17391.031,-17374.1,-17356.94
-17394.012,-17427.236,-17411.63,-17438.035,-17466.771,-17423.777,-17378.924,-17396.553,-17451.447,-17434.236,-17408.195,-17487.438,-17534.295,-17504.594,-17444.752,-17357.342,-17339.756,-17375.791,-17363.246,-17343.938,-17365.027,-17384.742,-17402.379,-17431.027,-17444.164
-17454.71,-17456.748,-17433.252,-17413.582,-17388.24,-17362.416,-17375.775,-17417.846,-17451.99,-17435.066,-17422.531,-17472.748,-17456.068,-17383.348,-17394.164,-17422.055,-17435.064,-17492.594,-17532.033,-17493.5,-17451.918,-17435.45,-17401.096,-17410.494,-17435.977
-17411.078,-17411.967,-17433.846,-17402.111,-17360.623,-17409.844,-17454.188,-17429.217,-17441.145,-17434.191,-17400.383,-17399.92,-17416.123,-17427.303,-17409.273,-17424.105,-17424.951,-17399.023,-17415.068,-17416.723,-17443.64,-17490.918,-17529.05,-17548.803,-17494.746
-17432.83,-17381.543,-17412.291,-17507.652,-17507.371,-17479.064,-17413.2,-17344.174,-17367.236,-17376.508,-17393.04,-17407.291,-17396.477,-17411.09,-17409.436,-17430.3,-17474.098,-17490.055,-17449.1,-17395.996,-17434.062,-17473.518,-17450.684,-17400.07,-17350.812
-17348.254,-17367.383,-17403.73,-17470.37,-17539.988,-17520.39,-17438.129,-17432.484,-17436.959,-17414.357,-17410.799,-17407.602,-17409.635,-17401.29,-17397.111,-17406.63,-17413.041,-17416.502,-17417.951,-17423.273,-17413.06,-17405.81,-17416.041,-17411.71,-17388.953
-17388.404,-17412.031,-17453.586,-17576.264,-17677.354,-17618.77,-17498.36,-17411.404,-17351.826,-17330.043,-17358.645,-17404.365,-17426.82,-17391.61,-17352.82,-17372.113,-17398.303,-17428.77,-17437.04,-17437.64,-17487.303,-17491.79,-17453.775,-17435.459,-17418.75
-17410.22,-17405.305,-17394.62,-17381.678,-17394.342,-17418.045,-17419.404,-17431.547,-17454.6,-17495.08,-17549.012,-17578.072,-17555.424,-17439.467,-17355.19,-17375.64,-17376.668,-17381.031,-17387.41,-17404.443,-17477.234,-17463.36,-17399.518,-17387.174,-17419.451
-17523.596,-17595.701,-17564.033,-17456.818,-17371.182,-17389.15,-17428.46,-17428.904,-17398.428,-17398.152,-17411.115,-17408.504,-17427.354,-17423.928,-17431.703,-17444.518,-17436.736,-17428.832,-17396.8,-17396.438,-17420.674,-17432.86,-17429.312,-17450.955,-17513.248
-17499.318,-17446.459,-17424.271,-17420.041,-17425.598,-17415.938,-17447.389,-17490.762,-17483.355,-17455.223,-17412.268,-17383.715,-17377.88,-17378.078,-17431.256,-17505.438,-17489.52,-17425.604,-17394.158,-17387.059,-17410.922,-17450.832,-17457.123,-17415.338,-17407.816
-17454.668,-17480.297,-17488.36,-17463.188,-17412.652,-17379.477,-17378.379,-17422.824,-17440.17,-17415.303,-17413.924,-17453.236,-17474.457,-17436.023,-17410.164,-17410.072,-17443.258,-17495.018,-17522.217,-17528.465,-17447.807,-17382.594,-17374.992,-17336.193,-17368.674
-17446.99,-17491.35,-17478.418,-17441.23,-17458.693,-17466.307,-17457.828,-17413.938,-17380.07,-17433.764,-17448.924,-17457.994,-17479.463,-17429.463,-17424.91,-17506.01,-17532.676,-17469.904,-17410.432,-17373.879,-17373.088,-17405.44,-17430.139,-17488.197,-17498.299
-17426.012,-17411.773,-17425.951,-17423.629,-17430.617,-17408.068,-17388.578,-17413.215,-17437.229,-17428.87,-17406.855,-17406.105,-17428.19,-17448.568,-17449.135,-17437.09,-17434.775,-17435.295,-17434.398,-17457.342,-17494.123,-17506.469,-17502.486,-17511.428,-17483.709
-17379.76,-17344.443,-17400.527,-17395.465,-17386.994,-17393.988,-17387.812,-17418.139,-17427.023,-17449.744,-17465.29,-17422.201,-17411.867,-17411.002,-17430.012,-17482.785,-17486.342,-17448.37,-17428.139,-17417.889,-17390.168,-17415.229,-17435.89,-17402.145,-17453.334
-17493.95,-17445.531,-17435.55,-17454.482,-17465.775,-17435.777,-17388.97,-17406.035,-17438.287,-17431.889,-17351.912,-17300.582,-17391.744,-17469.732,-17473.387,-17449.8,-17422.424,-17433.953,-17419.014,-17387.078,-17378.979,-17390.762,-17480.08,-17593.88,-17606.523
-17482.102,-17351.205,-17367.51,-17418.547,-17391.635,-17363.13,-17349.545,-17363.184,-17402.453,-17419.775,-17430.957,-17411.809,-17392.479,-17408.785,-17390.295,-17388.775,-17450.28,-17464.111,-17408.506,-17392.469,-17427.854,-17442.426,-17410.787,-17374.855,-17382.475
-17394.83,-17419.73,-17454.494,-17456.969,-17495.404,-17541.42,-17534.295,-17509.652,-17456.451,-17403.824,-17404.34,-17390.393,-17356.678,-17399.95,-17411.584,-17345.15,-17363.299,-17413.021,-17439.19,-17486.955,-17501.062,-17473.441,-17428.316,-17394.016,-17379.363
-17385.229,-17401.318,-17401.934,-17417.184,-17403.58,-17385.717,-17399.727,-17381.012,-17374.873,-17382.14,-17389.74,-17418.705,-17454.742,-17482.107,-17445.95,-17403.846,-17427.479,-17442.0,-17423.049,-17425.379,-17408.34,-17389.309,-17442.178,-17472.072,-17487.805
-17493.219,-17415.85,-17406.826,-17492.805,-17529.734,-17476.855,-17407.266,-17387.273,-17373.988,-17358.797,-17351.52,-17368.105,-17371.58,-17368.232,-17441.826,-17455.928,-17409.098,-17430.373,-17449.785,-17442.953,-17429.611,-17411.246,-17382.94,-17375.713,-17396.3
-17400.127,-17424.666,-17443.766,-17457.785,-17467.914,-17412.463,-17391.885,-17406.844,-17411.207,-17465.344,-17492.006,-17451.291,-17385.215,-17345.76,-17374.322,-17415.125,-17456.627,-17453.348,-17409.447,-17420.445,-17437.217,-17439.578,-17420.94,-17397.574,-17425.627
-17410.258,-17354.85,-17355.725,-17386.879,-17393.229,-17380.117,-17390.334,-17435.748,-17485.744,-17467.127,-17403.48,-17397.781,-17413.896,-17399.955,-17404.947,-17448.969,-17514.438,-17537.59,-17495.54,-17487.424,-17450.662,-17366.568,-17383.848,-17408.244,-17392.451
-17405.883,-17409.635,-17416.191,-17406.988,-17369.182,-17360.094,-17390.014,-17416.355,-17448.305,-17505.768,-17493.686,-17437.328,-17427.365,-17442.254,-17468.967,-17461.217,-17443.29,-17436.783,-17397.43,-17377.559,-17356.768,-17343.648,-17371.408,-17369.791,-17384.18
-17392.113,-17369.305,-17419.2,-17494.893,-17507.543,-17439.824,-17368.82,-17357.307,-17379.25,-17420.152,-17427.848,-17424.059,-17420.438,-17398.824,-17409.172,-17421.383,-17420.834,-17409.02,-17404.55,-17463.38,-17513.582,-17488.78,-17417.107,-17339.635,-17310.66
-17336.734,-17374.111,-17389.967,-17386.906,-17409.041,-17435.012,-17418.113,-17417.22,-17438.617,-17437.383,-17432.89,-17430.205,-17435.236,-17442.977,-17453.951,-17464.945,-17426.672,-17397.236,-17428.172,-17446.701,-17408.791,-17366.545,-17401.902,-17409.146,-17358.016
-17401.102,-17423.918,-17373.65,-17382.303,-17415.916,-17421.13,-17383.463,-17370.203,-17399.979,-17406.918,-17436.035,-17477.184,-17492.928,-17455.273,-17383.49,-17384.951,-17414.045,-17425.873,-17457.064,-17454.908,-17415.844,-17388.725,-17370.607,-17401.518,-17463.08
-17454.48,-17431.463,-17432.46,-17406.979,-17407.738,-17431.709,-17431.615,-17440.465,-17448.457,-17406.336,-17351.041,-17354.924,-17390.33,-17399.639,-17398.71,-17423.512,-17459.836,-17464.332,-17450.525,-17449.348,-17451.506,-17442.826,-17421.186,-17403.492,-17376.879
-17340.771,-17337.305,-17361.312,-17389.41,-17420.963,-17453.557,-17451.734,-17424.55,-17410.5,-17394.879,-17414.371,-17471.338,-17519.441,-17535.582,-17488.27,-17462.533,-17463.838,-17398.045,-17367.906,-17387.914,-17382.756,-17399.916,-17399.127,-17384.014,-17403.844
-17442.629,-17470.81,-17416.291,-17366.592,-17370.73,-17353.123,-17368.242,-17422.879,-17448.389,-17451.506,-17453.879,-17406.63,-17389.318,-17413.488,-17373.379,-17398.766,-17448.803,-17457.318,-17456.072,-17412.541,-17461.213,-17487.998,-17446.893,-17502.834,-17557.625
-17559.645,-17476.062,-17373.87,-17356.33,-17348.533,-17365.53,-17386.82,-17401.484,-17407.508,-17367.525,-17367.361,-17392.498,-17426.709,-17475.945,-17458.139,-17426.295,-17421.611,-17405.688,-17389.066,-17385.11,-17408.07,-17436.889,-17469.268,-17492.508,-17468.404
-17448.023,-17450.73,-17459.146,-17438.969,-17397.404,-17411.96,-17419.902,-17396.756,-17381.547,-17373.873,-17406.85,-17400.627,-17370.582,-17418.646,-17470.78,-17475.445,-17441.387,-17393.297,-17369.432,-17385.94,-17436.06,-17431.08,-17372.936,-17354.857,-17380.771
-17485.117,-17595.904,-17519.469,-17364.504,-17345.814,-17411.254,-17458.828,-17468.143,-17426.775,-17378.025,-17380.135,-17396.986,-17397.133,-17414.883,-17455.012,-17499.807,-17501.28,-17442.98,-17411.166,-17403.348,-17394.785,-17459.998,-17523.281,-17477.172,-17435.584
-17445.277,-17389.479,-17328.518,-17350.697,-17375.613,-17392.674,-17396.715,-17411.291,-17475.201,-17484.133,-17451.438,-17443.219,-17432.78,-17410.395,-17404.521,-17448.29,-17458.998,-17433.877,-17443.934,-17454.408,-17450.004,-17410.438,-17376.021,-17370.291,-17376.02
-17422.303,-17432.537,-17434.69,-17468.215,-17431.008,-17369.145,-17368.684,-17431.484,-17483.867,-17468.828,-17431.307,-17388.688,-17374.682,-17404.615,-17429.52,-17436.654,-17442.328,-17467.953,-17476.225,-17441.047,-17411.354,-17375.771,-17339.328,-17373.236,-17457.559
-17512.195,-17494.7,-17429.535,-17380.053,-17381.25,-17416.191,-17439.01,-17454.5,-17438.846,-17376.209,-17369.154,-17427.24,-17520.172,-17595.734,-17542.154,-17431.322,-17344.223,-17320.53,-17375.95,-17401.307,-17403.37,-17411.648,-17392.873,-17376.295,-17376.81
-17358.896,-17350.209,-17411.754,-17454.86,-17457.238,-17485.559,-17485.057,-17435.172,-17399.566,-17397.475,-17390.525,-17400.12,-17401.34,-17393.996,-17443.537,-17443.963,-17428.988,-17455.434,-17432.965,-17425.67,-17417.709,-17392.688,-17396.443,-17393.28,-17398.76
-17388.639,-17374.566,-17372.432,-17373.24,-17406.158,-17425.076,-17427.043,-17404.06,-17387.678,-17415.676,-17414.576,-17443.953,-17505.2,-17480.523,-17405.729,-17380.12,-17430.213,-17483.604,-17459.428,-17396.432,-17362.678,-17357.238,-17390.438,-17417.887,-17395.896
-17378.104,-17415.004,-17487.629,-17491.43,-17452.506,-17396.912,-17337.002,-17378.559,-17410.865,-17422.197,-17441.98,-17395.148,-17381.535,-17385.342,-17386.598,-17385.525,-17348.875,-17359.31,-17406.193,-17453.984,-17442.041,-17394.51,-17408.947,-17405.826,-17371.469
-17361.123,-17375.656,-17399.658,-17433.643,-17471.504,-17467.809,-17454.096,-17427.885,-17384.896,-17354.008,-17321.258,-17348.465,-17415.17,-17473.838,-17505.16,-17452.623,-17404.777,-17358.764,-17318.889,-17328.785,-17283.922,-17316.736,-17386.691,-17360.107,-17395.059
-17410.936,-17405.705,-17430.344,-17419.873,-17434.896,-17402.111,-17337.836,-17333.445,-17366.785,-17402.08,-17400.47,-17431.53,-17504.982,-17522.842,-17451.45,-17374.252,-17392.0,-17470.158,-17501.72,-17460.951,-17400.846,-17317.021,-17275.018,-17308.256,-17319.455
-17367.99,-17420.35,-17411.668,-17450.193,-17466.672,-17431.154,-17428.182,-17427.266,-17446.902,-17474.12,-17463.994,-17490.102,-17519.607,-17446.36,-17355.666,-17360.031,-17418.373,-17410.957,-17351.807,-17359.115,-17372.746,-17367.035,-17409.56,-17432.973,-17414.693
-17396.861,-17376.988,-17352.838,-17351.822,-17379.096,-17401.348,-17415.734,-17404.88,-17401.914,-17441.664,-17444.664,-17427.914,-17434.318,-17406.494,-17378.365,-17396.498,-17413.791,-17451.123,-17511.254,-17483.523,-17387.434,-17334.39,-17354.496,-17421.865,-17428.78
-17379.979,-17406.336,-17454.645,-17434.15,-17373.041,-17344.762,-17400.62,-17439.6,-17415.004,-17407.322,-17410.71,-17419.467,-17438.293,-17432.48,-17409.805,-17391.697,-17386.908,-17406.361,-17441.828,-17458.697,-17433.03,-17411.518,-17442.432,-17477.008,-17475.365
-17464.336,-17472.268,-17486.863,-17471.582,-17457.324,-17486.0,-17520.672,-17496.133,-17402.72,-17327.053,-17328.252,-17363.418,-17398.15,-17413.28,-17398.865,-17404.357,-17416.084,-17410.861,-17427.086,-17424.078,-17407.338,-17421.01,-17415.371,-17391.393,-17419.754
-17443.387,-17387.518,-17378.854,-17425.375,-17442.482,-17455.938,-17430.768,-17409.889,-17400.066,-17375.4,-17395.21,-17414.518,-17456.268,-17505.025,-17483.479,-17453.805,-17440.908,-17436.658,-17424.736,-17402.932,-17396.58,-17392.523,-17401.85,-17424.318,-17425.027
-17423.83,-17457.123,-17475.928,-17459.621,-17414.914,-17362.092,-17404.104,-17477.072,-17453.812,-17390.402,-17393.283,-17438.92,-17413.744,-17386.393,-17403.732,-17404.389,-17444.064,-17508.197,-17528.62,-17508.586,-17507.475,-17549.58,-17553.996,-17477.396,-17362.465
-17309.422,-17308.178,-17314.434,-17377.682,-17424.654,-17425.766,-17418.076,-17389.28,-17383.723,-17399.309,-17407.031,-17394.732,-17408.848,-17465.56,-17463.824,-17417.826,-17393.523,-17379.96,-17360.969,-17360.783,-17384.488,-17389.56,-17412.836,-17458.742,-17447.947
-17410.438,-17420.795,-17444.082,-17465.678,-17527.31,-17546.51,-17470.781,-17406.562,-17405.186,-17407.557,-17385.422,-17374.43,-17356.346,-17333.316,-17365.312,-17432.117,-17475.758,-17437.615,-17370.295,-17371.854,-17395.559,-17380.37,-17353.008,-17413.848,-17484.871
-17444.898,-17421.791,-17433.184,-17424.268,-17402.172,-17377.078,-17401.375,-17402.52,-17394.793,-17444.998,-17438.955,-17403.861,-17434.947,-17490.078,-17498.793,-17428.902,-17364.605,-17348.986,-17342.482,-17356.684,-17353.936,-17344.69,-17383.305,-17425.559,-17446.156
-17426.74,-17412.553,-17422.053,-17386.475,-17379.76,-17403.53,-17408.475,-17421.168,-17406.162,-17414.225,-17475.65,-17512.367,-17504.377,-17496.133,-17487.967,-17455.098,-17465.38,-17489.42,-17457.691,-17418.248,-17365.562,-17315.988,-17312.71,-17352.611,-17407.56
-17409.537,-17377.482,-17368.945,-17378.13,-17398.68,-17421.37,-17405.16,-17363.172,-17396.81,-17450.025,-17414.025,-17383.422,-17405.72,-17426.994,-17429.346,-17423.605,-17422.664,-17411.36,-17402.602,-17424.588,-17468.062,-17470.332,-17445.018,-17449.908,-17421.24
-17412.336,-17448.428,-17400.46,-17343.871,-17381.805,-17423.898,-17366.773,-17322.28,-17378.895,-17404.697,-17419.256,-17470.264,-17487.88,-17456.188,-17419.592,-17400.102,-17350.203,-17328.11,-17358.709,-17389.934,-17397.545,-17349.12,-17327.137,-17356.328,-17396.889
-17428.62,-17417.133,-17418.291,-17424.93,-17418.291,-17449.555,-17462.658,-17439.506,-17443.977,-17431.957,-17419.47,-17416.82,-17356.223,-17385.373,-17469.045,-17445.402,-17426.092,-17414.475,-17406.303,-17405.113,-17377.383,-17386.576,-17389.994,-17400.697,-17401.79
-17377.637,-17387.215,-17341.695,-17318.955,-17366.67,-17388.768,-17409.627,-17397.729,-17386.34,-17392.453,-17371.096,-17368.672,-17372.898,-17376.975,-17382.176,-17414.645,-17467.873,-17463.668,-17499.602,-17541.666,-17445.79,-17388.502,-17426.209,-17408.611,-17380.943
-17379.09,-17374.242,-17377.068,-17372.973,-17378.178,-17407.418,-17432.371,-17413.66,-17410.016,-17459.906,-17468.543,-17452.57,-17432.531,-17390.26,-17387.404,-17434.502,-17467.713,-17430.574,-17370.652,-17346.191,-17380.352,-17431.63,-17430.389,-17414.973,-17382.941
-17366.633,-17383.404,-17368.613,-17386.81,-17453.627,-17472.74,-17404.656,-17356.457,-17378.826,-17369.832,-17372.979,-17395.346,-17366.674,-17380.512,-17455.59,-17493.074,-17490.746,-17471.24,-17421.854,-17378.049,-17361.658,-17355.148,-17362.812,-17391.693,-17391.451
-17348.14,-17333.29,-17333.824,-17342.865,-17364.264,-17373.17,-17391.713,-17392.44,-17394.695,-17429.586,-17484.15,-17522.996,-17495.797,-17427.406,-17338.395,-17348.416,-17428.44,-17381.957,-17338.17,-17347.367,-17329.37,-17351.174,-17379.81,-17407.86,-17436.893
-17424.111,-17395.145,-17367.307,-17359.9,-17380.463,-17404.348,-17407.87,-17423.963,-17431.059,-17405.42,-17429.795,-17460.25,-17456.926,-17443.588,-17422.666,-17406.053,-17355.322,-17326.438,-17333.393,-17328.662,-17350.346,-17373.867,-17387.527,-17413.42,-17427.803
-17409.809,-17397.756,-17438.824,-17496.691,-17508.533,-17455.027,-17379.676,-17344.908,-17389.271,-17452.176,-17443.707,-17389.035,-17344.504,-17361.236,-17387.666,-17375.076,-17394.65,-17401.938,-17359.064,-17335.502,-17374.064,-17421.734,-17422.41,-17442.248,-17436.686
-17391.832,-17404.518,-17395.727,-17405.795,-17508.12,-17519.18,-17430.066,-17360.75,-17319.32,-17352.46,-17401.791,-17419.652,-17430.332,-17394.178,-17377.688,-17383.273,-17387.223,-17404.014,-17389.355,-17383.832,-17376.312,-17396.06,-17472.488,-17497.01,-17454.148
-17401.248,-17394.686,-17402.83,-17416.006,-17438.365,-17385.271,-17330.293,-17311.594,-17323.402,-17407.912,-17442.797,-17406.85,-17389.049,-17415.482,-17430.816,-17374.791,-17373.967,-17408.75,-17369.062,-17342.568,-17339.982,-17357.645,-17395.8,-17386.516,-17402.984
-17499.023,-17549.123,-17512.03,-17514.8,-17508.613,-17389.06,-17343.54,-17353.203,-17286.81,-17311.312,-17366.066,-17386.23,-17435.105,-17386.617,-17320.688,-17329.623,-17361.475,-17401.723,-17390.832,-17402.559,-17460.107,-17462.48,-17462.812,-17462.246,-17414.22
-17412.264,-17461.121,-17486.521,-17449.873,-17343.732,-17305.043,-17371.996,-17390.998,-17358.836,-17370.332,-17384.58,-17393.895,-17454.605,-17495.43,-17483.686,-17438.137,-17423.697,-17459.713,-17381.693,-17309.715,-17340.473,-17340.643,-17421.6,-17515.004,-17519.508
-17545.344,-17517.51,-17428.236,-17354.21,-17339.133,-17373.736,-17353.816,-17348.314,-17379.547,-17363.943,-17368.875,-17391.645,-17379.086,-17373.7,-17383.938,-17386.482,-17394.016,-17418.95,-17441.83,-17433.16,-17402.807,-17367.498,-17344.44,-17399.473,-17503.758
-17543.396,-17503.324,-17455.438,-17414.855,-17337.088,-17332.535,-17392.588,-17372.693,-17388.174,-17407.174,-17371.637,-17383.834,-17361.002,-17331.57,-17368.746,-17458.537,-17531.094,-17508.188,-17471.475,-17411.93,-17389.432,-17437.186,-17437.352,-17447.156,-17464.133
-17442.71,-17384.68,-17346.484,-17382.271,-17396.717,-17406.27,-17414.729,-17384.615,-17355.201,-17338.633,-17354.982,-17344.805,-17338.863,-17382.572,-17390.457,-17410.688,-17473.818,-17490.92,-17459.908,-17455.701,-17443.361,-17405.943,-17416.443,-17411.947,-17396.693
-17432.807,-17440.693,-17405.027,-17393.732,-17396.396,-17381.506,-17415.238,-17441.23,-17376.268,-17356.688,-17373.54,-17367.197,-17419.139,-17450.88,-17406.793,-17398.258,-17417.22,-17405.621,-17420.111,-17449.19,-17455.627,-17449.248,-17382.176,-17342.033,-17382.625
-17368.758,-17323.217,-17312.049,-17315.799,-17336.002,-17399.887,-17500.932,-17526.996,-17507.803,-17532.26,-17513.342,-17426.98,-17348.16,-17334.531,-17376.775,-17385.041,-17351.27,-17353.79,-17382.74,-17395.967,-17399.371,-17405.629,-17425.379,-17429.553,-17429.459
-17431.95,-17393.266,-17379.807,-17401.535,-17394.076,-17405.133,-17440.24,-17446.193,-17423.38,-17422.402,-17470.764,-17509.59,-17506.29,-17448.652,-17374.012,-17385.354,-17418.453,-17396.953,-17377.799,-17370.215,-17361.066,-17349.844,-17341.033,-17360.22,-17388.482
-17374.703,-17360.717,-17385.775,-17409.678,-17438.549,-17446.768,-17432.734,-17430.912,-17389.947,-17360.11,-17398.91,-17417.285,-17408.127,-17444.172,-17485.531,-17462.842,-17412.096,-17392.076,-17415.148,-17422.742,-17370.135,-17330.703,-17312.246,-17307.11,-17387.057
-17461.686,-17461.14,-17460.766,-17458.922,-17467.322,-17498.57,-17500.473,-17478.39,-17463.582,-17424.701,-17365.291,-17347.03,-17355.006,-17401.928,-17475.121,-17468.328,-17409.285,-17365.943,-17350.8,-17387.387,-17436.773,-17400.559,-17323.422,-17334.0,-17391.283
-17437.709,-17446.23,-17423.346,-17434.19,-17422.18,-17380.777,-17395.943,-17453.79,-17465.906,-17420.18,-17404.27,-17413.81,-17399.553,-17361.613,-17363.973,-17426.172,-17449.4,-17472.842,-17506.33,-17462.068,-17401.408,-17373.607,-17381.191,-17403.422,-17395.58
-17380.094,-17397.588,-17414.951,-17376.14,-17342.97,-17328.57,-17324.607,-17358.295,-17347.893,-17350.906,-17405.803,-17412.912,-17402.248,-17433.045,-17490.047,-17485.209,-17459.908,-17462.906,-17417.697,-17362.568,-17312.303,-17326.826,-17416.518,-17435.93,-17423.297
-17429.209,-17422.455,-17419.865,-17434.021,-17433.127,-17419.512,-17439.383,-17407.35,-17352.541,-17371.797,-17365.043,-17345.006,-17394.27,-17450.434,-17409.084,-17327.5,-17321.4,-17335.787,-17377.014,-17435.16,-17427.828,-17437.625,-17498.21,-17533.984,-17504.562
-17450.885,-17445.293,-17469.479,-17459.78,-17385.193,-17351.443,-17409.678,-17400.773,-17315.334,-17308.758,-17391.086,-17450.148,-17440.375,-17386.637,-17349.12,-17364.521,-17359.25,-17330.84,-17334.793,-17331.717,-17319.309,-17335.863,-17367.428,-17386.908,-17394.059
-17414.69,-17442.924,-17462.3,-17497.5,-17516.49,-17490.88,-17459.72,-17431.979,-17400.26,-17397.062,-17443.76,-17463.05,-17445.291,-17406.5,-17320.947,-17267.416,-17262.588,-17300.453,-17350.37,-17357.4,-17374.129,-17396.611,-17375.475,-17324.264,-17330.045
-17368.176,-17408.129,-17475.338,-17468.47,-17464.975,-17489.998,-17438.77,-17386.578,-17357.82,-17371.049,-17402.951,-17415.873,-17446.576,-17444.676,-17452.268,-17481.863,-17438.957,-17387.469,-17372.318,-17364.836,-17362.473,-17338.97,-17339.242,-17371.926,-17367.502
-17363.283,-17374.475,-17367.906,-17363.912,-17359.615,-17356.643,-17366.287,-17373.578,-17395.727,-17458.207,-17498.584,-17478.719,-17471.766,-17478.615,-17449.766,-17413.889,-17412.01,-17407.178,-17345.434,-17305.81,-17346.145,-17374.908,-17367.076,-17375.2,-17380.947
-17366.938,-17342.246,-17317.662,-17338.55,-17371.607,-17369.45,-17378.285,-17403.613,-17437.7,-17452.389,-17395.143,-17348.34,-17397.111,-17462.162,-17483.016,-17525.639,-17546.895,-17471.828,-17408.975,-17400.896,-17392.06,-17349.578,-17298.104,-17293.35,-17310.678
-17356.168,-17398.158,-17384.496,-17337.691,-17300.445,-17323.395,-17340.807,-17358.836,-17416.656,-17447.0,-17482.49,-17512.705,-17486.107,-17442.334,-17443.1,-17459.918,-17424.582,-17403.121,-17386.404,-17346.027,-17362.898,-17397.9,-17400.803,-17382.08,-17344.266
-17291.82,-17268.738,-17354.234,-17448.076,-17440.502,-17433.979,-17424.73,-17379.738,-17398.928,-17407.41,-17388.047,-17430.594,-17398.33,-17334.447,-17359.996,-17369.482,-17396.982,-17456.295,-17450.959,-17402.879,-17382.408,-17401.416,-17378.941,-17336.055,-17322.775
-17318.29,-17367.648,-17426.191,-17431.7,-17396.58,-17365.67,-17383.318,-17386.564,-17383.434,-17409.385,-17438.97,-17480.365,-17508.67,-17469.729,-17371.316,-17347.656,-17387.049,-17377.86,-17368.44,-17342.91,-17325.09,-17357.174,-17389.46,-17427.084,-17407.854
-17345.781,-17336.508,-17364.338,-17386.053,-17370.666,-17347.441,-17337.607,-17353.943,-17434.686,-17500.758,-17453.865,-17370.406,-17380.34,-17432.307,-17443.107,-17472.94,-17504.346,-17465.969,-17416.164,-17396.426,-17386.658,-17391.22,-17397.785,-17377.89,-17352.377
-17363.102,-17344.596,-17282.658,-17280.857,-17300.857,-17322.096,-17370.023,-17394.1,-17405.838,-17388.025,-17338.873,-17294.6,-17285.521,-17325.627,-17371.285,-17442.098,-17502.268,-17569.691,-17613.486,-17482.572,-17361.947,-17341.287,-17345.047,-17387.78,-17372.014
-17346.902,-17326.092,-17294.988,-17337.658,-17373.09,-17392.166,-17407.277,-17388.365,-17366.023,-17345.568,-17348.857,-17368.809,-17382.842,-17384.63,-17411.17,-17423.002,-17369.904,-17362.455,-17373.402,-17392.264,-17446.307,-17417.799,-17379.05,-17396.78,-17393.535
-17382.053,-17393.396,-17384.053,-17313.38,-17275.94,-17316.16,-17367.262,-17430.18,-17480.86,-17473.852,-17429.268,-17388.617,-17367.605,-17370.39,-17405.092,-17418.908,-17385.926,-17360.95,-17361.06,-17355.174,-17332.912,-17353.33,-17394.441,-17382.656,-17363.326
-17344.104,-17334.225,-17345.83,-17361.043,-17394.957,-17391.414,-17368.174,-17336.812,-17324.926,-17393.148,-17388.246,-17336.81,-17340.363,-17350.969,-17398.094,-17420.549,-17406.346,-17394.197,-17375.97,-17388.744,-17382.51,-17360.445,-17328.16,-17267.967,-17273.334
-17325.205,-17372.447,-17414.46,-17452.055,-17489.191,-17445.951,-17376.309,-17349.266,-17306.215,-17305.746,-17332.531,-17338.168,-17351.682,-17336.838,-17331.375,-17357.627,-17389.766,-17406.172,-17373.799,-17378.156,-17405.373,-17358.771,-17331.021,-17383.371,-17390.275
-17329.826,-17348.299,-17405.576,-17401.027,-17388.695,-17374.707,-17357.324,-17356.322,-17359.037,-17347.705,-17324.07,-17329.248,-17340.926,-17328.576,-17332.578,-17363.857,-17386.922,-17388.78,-17373.924,-17360.004,-17382.723,-17396.598,-17376.695,-17361.863,-17337.486
-17320.139,-17318.957,-17317.828,-17333.236,-17369.072,-17421.205,-17453.416,-17430.844,-17383.312,-17334.77,-17294.31,-17314.55,-17350.576,-17353.895,-17409.928,-17448.303,-17386.527,-17336.46,-17370.031,-17420.482,-17380.35,-17337.203,-17370.3,-17379.643,-17370.156
-17348.525,-17327.295,-17355.322,-17365.584,-17350.318,-17329.22,-17289.26,-17269.777,-17290.121,-17329.04,-17369.734,-17406.686,-17380.842,-17325.469,-17357.064,-17396.852,-17385.229,-17395.348,-17383.906,-17341.713,-17362.531,-17392.473,-17388.312,-17401.361,-17386.738
-17363.42,-17377.627,-17395.037,-17419.285,-17433.072,-17408.54,-17365.604,-17352.582,-17349.176,-17338.44,-17350.191,-17347.246,-17360.213,-17365.443,-17365.924,-17408.295,-17349.4,-17288.576,-17331.951,-17348.588,-17358.654,-17363.807,-17359.338,-17380.607,-17420.09
-17434.223,-17392.473,-17376.531,-17369.303,-17355.799,-17376.764,-17368.506,-17362.969,-17396.436,-17412.713,-17414.87,-17423.96,-17414.828,-17374.6,-17357.855,-17380.402,-17390.861,-17353.096,-17297.875,-17293.832,-17322.502,-17361.756,-17392.305,-17383.568,-17387.629
-17378.607,-17339.736,-17328.09,-17341.371,-17391.412,-17457.98,-17497.072,-17438.033,-17312.006,-17305.008,-17361.818,-17364.084,-17356.025,-17346.617,-17353.465,-17362.514,-17369.2,-17394.867,-17395.283,-17391.277,-17401.678,-17409.006,-17411.385,-17384.016,-17389.518
-17419.102,-17359.822,-17305.285,-17344.305,-17380.498,-17379.006,-17400.137,-17452.227,-17446.732,-17391.27,-17354.168,-17312.588,-17311.576,-17351.877,-17387.371,-17410.414,-17368.102,-17362.48,-17415.896,-17387.7,-17348.803,-17348.08,-17353.148,-17403.88,-17431.871
-17386.373,-17340.44,-17310.756,-17312.547,-17335.771,-17310.035,-17323.361,-17415.47,-17456.316,-17455.996,-17448.566,-17404.336,-17362.326,-17351.285,-17357.936,-17324.938,-17284.55,-17326.713,-17382.734,-17434.598,-17475.742,-17453.266,-17439.594,-17403.197,-17360.887
-17417.432,-17440.584,-17387.98,-17370.686,-17363.438,-17353.102,-17377.363,-17405.826,-17412.443,-17394.744,-17349.148,-17329.42,-17352.342,-17362.244,-17378.906,-17406.924,-17401.23,-17386.242,-17369.787,-17357.01,-17364.5,-17364.35,-17355.617,-17349.611,-17349.096
-17340.355,-17328.037,-17346.193,-17376.81,-17402.076,-17439.205,-17481.445,-17489.158,-17496.264,-17503.922,-17424.34,-17331.357,-17293.125,-17287.967,-17337.27,-17400.996,-17425.994,-17410.998,-17396.816,-17377.793,-17352.082,-17354.549,-17337.732,-17321.979,-17330.621
-17336.39,-17360.26,-17377.61,-17372.295,-17359.352,-17343.29,-17315.25,-17314.268,-17378.545,-17431.775,-17446.982,-17438.957,-17390.078,-17339.992,-17360.176,-17441.725,-17492.812,-17469.488,-17410.176,-17392.504,-17410.77,-17428.664,-17437.309,-17395.084,-17379.436
-17415.277,-17426.998,-17398.86,-17334.004,-17341.275,-17374.236,-17337.508,-17340.334,-17352.514,-17364.953,-17409.59,-17420.422,-17437.67,-17433.238,-17365.846,-17322.928,-17336.32,-17370.729,-17379.002,-17350.562,-17338.861,-17359.416,-17383.18,-17442.596,-17483.418
-17446.3,-17425.945,-17422.553,-17433.027,-17473.188,-17471.686,-17422.92,-17377.057,-17377.951,-17390.898,-17367.158,-17316.297,-17300.756,-17331.285,-17340.352,-17367.217,-17398.611,-17399.979,-17394.916,-17372.973,-17386.97,-17421.97,-17419.55,-17386.922,-17376.63
-17412.646,-17430.836,-17425.531,-17404.365,-17370.742,-17346.545,-17345.514,-17387.75,-17420.33,-17413.715,-17398.955,-17397.719,-17393.47,-17363.572,-17349.582,-17360.23,-17377.404,-17389.84,-17394.045,-17398.72,-17374.31,-17340.09,-17329.89,-17327.781,-17373.531
